OOIBase32 Version 2.0.6.5 Data File
++++++++++++++++++++++++++++++++++++
Date: 03-23-2011, 12:15:59
User: Valued Ocean Optics Customer
Spectrometer Serial Number: USB4C01507
Spectrometer Channel: Master
Integration Time (msec): 62
Spectra Averaged: 20
Boxcar Smoothing: 5
Correct for Electrical Dark: Enabled
Time Normalized: Disabled
Dual-beam Reference: Disabled
Reference Channel: Master
Temperature: Not acquired
Spectrometer Type: S4000
ADC Type: USB4000
Number of Pixels in File: 3648
Graph Title: 
>>>>>Begin Spectral Data<<<<<
178.53	38.360
178.74	-26.585
178.96	-146.554
179.18	374.439
179.39	-15.953
179.61	48.695
179.82	-61.770
180.04	-66.978
180.25	176.194
180.47	-27.268
180.69	430.161
180.90	99.032
181.12	-141.507
181.33	11511.444
181.55	405.984
181.76	31.077
181.98	-407.300
182.20	-18.784
182.41	68.108
182.63	61.002
182.84	30.795
183.06	31.812
183.27	44.303
183.49	38.986
183.71	32.334
183.92	16.095
184.14	24.783
184.35	31.495
184.57	26.844
184.78	24.446
185.00	26.580
185.21	29.595
185.43	25.048
185.65	17.881
185.86	20.208
186.08	22.804
186.29	30.558
186.51	23.084
186.72	29.488
186.94	38.140
187.15	39.507
187.37	46.726
187.58	45.288
187.80	48.261
188.02	51.309
188.23	44.881
188.45	47.523
188.66	48.000
188.88	49.434
189.09	45.475
189.31	46.684
189.52	48.223
189.74	42.816
189.95	49.426
190.17	52.540
190.38	54.591
190.60	52.724
190.82	50.233
191.03	58.748
191.25	51.453
191.46	39.799
191.68	31.332
191.89	29.103
192.11	34.446
192.32	27.110
192.54	26.548
192.75	21.229
192.97	26.329
193.18	25.153
193.40	20.038
193.61	27.152
193.83	31.604
194.04	34.242
194.26	32.636
194.48	27.959
194.69	23.116
194.91	23.149
195.12	25.901
195.34	26.085
195.55	31.762
195.77	38.772
195.98	36.355
196.20	33.853
196.41	30.602
196.63	40.578
196.84	42.268
197.06	51.037
197.27	49.827
197.49	50.102
197.70	53.829
197.92	49.753
198.13	46.059
198.35	43.951
198.56	45.018
198.78	47.935
198.99	37.693
199.21	36.293
199.42	26.674
199.64	22.134
199.85	20.036
200.07	6.328
200.28	2.533
200.50	-0.552
200.71	2.156
200.93	-0.511
201.14	-7.063
201.36	-1.569
201.57	-2.385
201.79	0.885
202.00	6.974
202.22	3.058
202.43	14.883
202.65	19.698
202.86	13.289
203.08	6.222
203.29	10.637
203.51	5.199
203.72	4.458
203.94	10.561
204.15	6.533
204.37	2.743
204.58	8.664
204.80	5.910
205.01	10.407
205.22	14.118
205.44	24.663
205.65	24.214
205.87	31.169
206.08	30.532
206.30	29.885
206.51	29.766
206.73	32.113
206.94	33.949
207.16	34.450
207.37	31.114
207.59	31.194
207.80	20.281
208.02	19.638
208.23	19.011
208.45	20.591
208.66	15.819
208.88	19.407
209.09	16.555
209.30	14.776
209.52	12.719
209.73	8.787
209.95	13.181
210.16	18.827
210.38	18.941
210.59	21.536
210.81	19.912
211.02	20.882
211.24	18.885
211.45	18.300
211.66	16.131
211.88	14.132
212.09	14.347
212.31	15.359
212.52	15.315
212.74	12.340
212.95	8.757
213.17	7.585
213.38	7.216
213.60	13.371
213.81	16.309
214.02	19.205
214.24	18.213
214.45	18.746
214.67	13.162
214.88	13.867
215.10	14.348
215.31	18.348
215.53	23.481
215.74	21.965
215.95	19.341
216.17	14.338
216.38	13.770
216.60	17.236
216.81	19.444
217.03	17.590
217.24	18.141
217.45	20.559
217.67	19.684
217.88	15.336
218.10	16.768
218.31	15.607
218.53	17.742
218.74	15.354
218.95	13.178
219.17	11.078
219.38	14.032
219.60	12.464
219.81	13.032
220.03	8.725
220.24	9.714
220.45	8.559
220.67	6.482
220.88	8.665
221.10	9.752
221.31	11.741
221.53	12.565
221.74	12.110
221.95	10.440
222.17	8.553
222.38	9.514
222.60	8.057
222.81	9.170
223.02	9.709
223.24	9.187
223.45	9.410
223.67	8.040
223.88	7.862
224.09	7.453
224.31	9.668
224.52	11.322
224.74	9.995
224.95	10.288
225.16	9.618
225.38	9.398
225.59	9.003
225.81	8.715
226.02	8.124
226.23	8.190
226.45	7.178
226.66	6.162
226.88	4.341
227.09	4.573
227.30	4.181
227.52	4.178
227.73	4.055
227.95	3.618
228.16	3.368
228.37	3.445
228.59	3.308
228.80	3.257
229.02	3.256
229.23	3.176
229.44	3.192
229.66	3.151
229.87	3.044
230.08	2.877
230.30	2.778
230.51	2.621
230.73	2.514
230.94	2.497
231.15	2.970
231.37	2.726
231.58	3.167
231.80	3.257
232.01	3.064
232.22	3.195
232.44	3.455
232.65	3.279
232.86	3.633
233.08	3.262
233.29	3.050
233.51	2.842
233.72	3.676
233.93	3.558
234.15	3.352
234.36	3.567
234.57	3.264
234.79	3.739
235.00	4.261
235.21	4.277
235.43	4.481
235.64	4.746
235.86	4.803
236.07	4.320
236.28	4.472
236.50	4.491
236.71	4.830
236.92	5.130
237.14	3.888
237.35	4.054
237.56	4.005
237.78	3.952
237.99	3.723
238.20	3.067
238.42	3.645
238.63	3.792
238.84	3.083
239.06	2.969
239.27	2.465
239.48	2.795
239.70	2.165
239.91	2.226
240.13	2.301
240.34	2.128
240.55	2.303
240.77	2.114
240.98	1.966
241.19	2.514
241.41	2.159
241.62	2.213
241.83	2.480
242.05	2.670
242.26	2.449
242.47	2.469
242.69	2.489
242.90	2.385
243.11	2.197
243.33	2.050
243.54	1.906
243.75	2.253
243.97	2.461
244.18	2.258
244.39	2.059
244.61	2.415
244.82	2.248
245.03	2.109
245.24	2.273
245.46	2.293
245.67	2.470
245.88	2.723
246.10	2.489
246.31	2.358
246.52	2.386
246.74	2.410
246.95	2.272
247.16	2.345
247.38	2.286
247.59	2.312
247.80	2.334
248.02	2.368
248.23	2.282
248.44	2.235
248.66	2.178
248.87	2.237
249.08	2.226
249.29	2.329
249.51	2.413
249.72	2.581
249.93	2.655
250.15	2.787
250.36	2.664
250.57	2.777
250.79	3.038
251.00	3.265
251.21	3.191
251.42	2.985
251.64	2.914
251.85	2.767
252.06	2.819
252.28	2.707
252.49	2.646
252.70	2.873
252.91	2.878
253.13	2.918
253.34	2.800
253.55	2.739
253.77	2.993
253.98	3.260
254.19	3.333
254.40	3.142
254.62	3.133
254.83	3.212
255.04	3.167
255.26	3.190
255.47	3.222
255.68	3.375
255.89	3.329
256.11	2.915
256.32	2.581
256.53	2.623
256.75	2.766
256.96	2.888
257.17	2.906
257.38	2.792
257.60	2.659
257.81	2.728
258.02	2.823
258.23	2.908
258.45	2.975
258.66	2.843
258.87	2.675
259.09	2.533
259.30	2.361
259.51	2.373
259.72	2.264
259.94	2.241
260.15	2.197
260.36	2.195
260.57	2.103
260.79	2.041
261.00	2.079
261.21	2.086
261.42	2.185
261.64	2.287
261.85	2.392
262.06	2.573
262.27	2.609
262.49	2.648
262.70	2.734
262.91	3.045
263.12	3.237
263.34	3.328
263.55	3.397
263.76	3.178
263.97	3.172
264.19	3.205
264.40	3.310
264.61	3.436
264.82	3.399
265.04	3.283
265.25	2.997
265.46	3.016
265.67	2.951
265.88	2.587
266.10	2.480
266.31	2.559
266.52	2.410
266.73	2.334
266.95	2.383
267.16	2.437
267.37	2.330
267.58	2.218
267.80	2.153
268.01	1.917
268.22	2.135
268.43	2.147
268.64	1.939
268.86	1.746
269.07	1.743
269.28	1.709
269.49	1.626
269.71	1.713
269.92	2.000
270.13	2.004
270.34	2.266
270.55	2.274
270.77	2.441
270.98	2.511
271.19	2.716
271.40	2.730
271.61	2.736
271.83	2.641
272.04	2.568
272.25	2.498
272.46	2.436
272.68	2.524
272.89	2.427
273.10	2.335
273.31	2.474
273.52	2.466
273.74	2.374
273.95	2.391
274.16	2.460
274.37	2.490
274.58	2.406
274.80	2.406
275.01	2.191
275.22	2.319
275.43	2.416
275.64	2.253
275.86	2.068
276.07	2.113
276.28	2.097
276.49	2.127
276.70	2.202
276.91	2.142
277.13	2.089
277.34	2.135
277.55	2.175
277.76	2.167
277.97	2.151
278.19	2.341
278.40	2.420
278.61	2.320
278.82	2.309
279.03	2.197
279.24	2.418
279.46	2.461
279.67	2.504
279.88	2.219
280.09	2.305
280.30	2.246
280.52	2.227
280.73	2.190
280.94	2.157
281.15	2.105
281.36	2.045
281.57	1.742
281.79	1.793
282.00	1.764
282.21	2.003
282.42	1.853
282.63	1.926
282.84	1.869
283.06	1.963
283.27	1.972
283.48	2.045
283.69	2.042
283.90	2.186
284.11	2.094
284.32	2.036
284.54	1.953
284.75	2.030
284.96	2.001
285.17	2.013
285.38	1.921
285.59	1.959
285.81	1.928
286.02	2.100
286.23	2.176
286.44	2.238
286.65	2.168
286.86	2.118
287.07	2.119
287.29	2.150
287.50	2.137
287.71	2.171
287.92	2.138
288.13	2.137
288.34	1.906
288.55	1.866
288.77	1.917
288.98	2.023
289.19	2.111
289.40	2.119
289.61	2.158
289.82	2.125
290.03	2.125
290.24	2.236
290.46	2.325
290.67	2.482
290.88	2.469
291.09	2.505
291.30	2.578
291.51	2.531
291.72	2.508
291.93	2.427
292.15	2.569
292.36	2.425
292.57	2.397
292.78	2.396
292.99	2.278
293.20	2.215
293.41	2.194
293.62	2.241
293.84	2.365
294.05	2.382
294.26	2.415
294.47	2.363
294.68	2.353
294.89	2.413
295.10	2.432
295.31	2.497
295.52	2.621
295.73	2.639
295.95	2.583
296.16	2.541
296.37	2.533
296.58	2.582
296.79	2.560
297.00	2.662
297.21	2.552
297.42	2.504
297.63	2.509
297.84	2.556
298.06	2.554
298.27	2.619
298.48	2.675
298.69	2.753
298.90	2.761
299.11	2.906
299.32	2.931
299.53	3.057
299.74	3.126
299.95	3.202
300.16	3.105
300.38	3.166
300.59	3.107
300.80	3.049
301.01	2.935
301.22	2.980
301.43	2.792
301.64	2.728
301.85	2.737
302.06	2.682
302.27	2.610
302.48	2.557
302.69	2.472
302.91	2.561
303.12	2.522
303.33	2.639
303.54	2.574
303.75	2.642
303.96	2.765
304.17	2.721
304.38	2.696
304.59	2.796
304.80	2.817
305.01	2.816
305.22	2.892
305.43	3.043
305.64	2.946
305.85	3.122
306.06	3.199
306.28	3.251
306.49	3.272
306.70	3.327
306.91	3.295
307.12	3.492
307.33	3.542
307.54	3.357
307.75	3.277
307.96	3.316
308.17	3.227
308.38	3.263
308.59	3.283
308.80	3.301
309.01	3.442
309.22	3.424
309.43	3.208
309.64	3.180
309.85	3.301
310.06	3.355
310.27	3.352
310.48	3.347
310.70	3.289
310.91	3.276
311.12	3.339
311.33	3.297
311.54	3.323
311.75	3.462
311.96	3.433
312.17	3.340
312.38	3.278
312.59	3.419
312.80	3.369
313.01	3.398
313.22	3.399
313.43	3.367
313.64	3.311
313.85	3.281
314.06	3.278
314.27	3.480
314.48	3.560
314.69	3.771
314.90	3.665
315.11	3.800
315.32	3.794
315.53	3.796
315.74	3.818
315.95	3.894
316.16	3.994
316.37	3.970
316.58	3.883
316.79	3.934
317.00	3.875
317.21	3.939
317.42	3.952
317.63	3.917
317.84	3.940
318.05	4.019
318.26	3.956
318.47	3.876
318.68	3.956
318.89	3.960
319.10	3.948
319.31	3.952
319.52	3.927
319.73	3.849
319.94	3.967
320.15	3.997
320.36	3.944
320.57	4.060
320.78	4.193
320.99	4.167
321.20	4.250
321.41	4.297
321.62	4.341
321.83	4.335
322.04	4.414
322.25	4.412
322.46	4.481
322.67	4.565
322.88	4.581
323.09	4.605
323.30	4.726
323.51	4.714
323.72	4.720
323.93	4.630
324.14	4.660
324.35	4.645
324.56	4.676
324.77	4.557
324.98	4.514
325.19	4.527
325.40	4.479
325.61	4.454
325.82	4.469
326.03	4.471
326.24	4.523
326.45	4.591
326.65	4.674
326.86	4.634
327.07	4.698
327.28	4.750
327.49	4.712
327.70	4.774
327.91	4.644
328.12	4.611
328.33	4.646
328.54	4.633
328.75	4.633
328.96	4.717
329.17	4.738
329.38	4.778
329.59	4.804
329.80	4.826
330.01	4.833
330.22	4.915
330.43	4.994
330.64	5.052
330.85	5.045
331.05	5.021
331.26	4.955
331.47	4.985
331.68	4.973
331.89	4.897
332.10	4.924
332.31	4.963
332.52	4.990
332.73	4.970
332.94	4.936
333.15	4.978
333.36	4.935
333.57	4.964
333.78	4.989
333.99	5.000
334.19	5.082
334.40	5.132
334.61	5.111
334.82	5.140
335.03	5.176
335.24	5.152
335.45	5.197
335.66	5.332
335.87	5.319
336.08	5.280
336.29	5.304
336.50	5.298
336.71	5.281
336.91	5.305
337.12	5.316
337.33	5.373
337.54	5.369
337.75	5.423
337.96	5.442
338.17	5.435
338.38	5.506
338.59	5.532
338.80	5.594
339.01	5.550
339.21	5.554
339.42	5.567
339.63	5.492
339.84	5.501
340.05	5.451
340.26	5.401
340.47	5.438
340.68	5.453
340.89	5.488
341.10	5.472
341.30	5.534
341.51	5.544
341.72	5.564
341.93	5.649
342.14	5.723
342.35	5.761
342.56	5.790
342.77	5.775
342.98	5.765
343.18	5.785
343.39	5.768
343.60	5.776
343.81	5.677
344.02	5.711
344.23	5.664
344.44	5.594
344.65	5.613
344.85	5.686
345.06	5.738
345.27	5.768
345.48	5.714
345.69	5.714
345.90	5.705
346.11	5.837
346.32	5.801
346.52	5.868
346.73	5.878
346.94	5.928
347.15	5.802
347.36	5.816
347.57	5.789
347.78	5.802
347.98	5.835
348.19	5.877
348.40	5.903
348.61	5.946
348.82	5.941
349.03	6.030
349.24	5.984
349.44	6.135
349.65	6.139
349.86	6.110
350.07	6.170
350.28	6.183
350.49	6.216
350.70	6.163
350.90	6.104
351.11	6.031
351.32	6.042
351.53	6.157
351.74	6.095
351.95	6.121
352.15	6.162
352.36	6.118
352.57	6.143
352.78	6.094
352.99	6.155
353.20	6.269
353.40	6.384
353.61	6.401
353.82	6.319
354.03	6.382
354.24	6.348
354.45	6.420
354.65	6.549
354.86	6.551
355.07	6.667
355.28	6.681
355.49	6.728
355.70	6.722
355.90	6.695
356.11	6.731
356.32	6.694
356.53	6.774
356.74	6.774
356.94	6.761
357.15	6.781
357.36	6.743
357.57	6.765
357.78	6.728
357.99	6.739
358.19	6.792
358.40	6.796
358.61	6.809
358.82	6.780
359.03	6.761
359.23	6.702
359.44	6.742
359.65	6.756
359.86	6.752
360.07	6.722
360.27	6.780
360.48	6.764
360.69	6.762
360.90	6.778
361.11	6.801
361.31	6.875
361.52	6.955
361.73	6.971
361.94	7.017
362.15	7.051
362.35	7.114
362.56	7.102
362.77	7.138
362.98	7.192
363.18	7.219
363.39	7.233
363.60	7.273
363.81	7.250
364.02	7.225
364.22	7.224
364.43	7.245
364.64	7.231
364.85	7.258
365.05	7.258
365.26	7.281
365.47	7.269
365.68	7.299
365.89	7.280
366.09	7.257
366.30	7.323
366.51	7.324
366.72	7.348
366.92	7.405
367.13	7.395
367.34	7.469
367.55	7.478
367.75	7.535
367.96	7.574
368.17	7.642
368.38	7.725
368.58	7.719
368.79	7.751
369.00	7.715
369.21	7.763
369.41	7.804
369.62	7.798
369.83	7.799
370.04	7.854
370.24	7.836
370.45	7.811
370.66	7.829
370.87	7.846
371.07	7.869
371.28	7.891
371.49	7.889
371.70	7.912
371.90	7.939
372.11	7.983
372.32	7.994
372.53	8.003
372.73	8.016
372.94	8.074
373.15	8.103
373.36	8.141
373.56	8.189
373.77	8.224
373.98	8.269
374.19	8.233
374.39	8.208
374.60	8.209
374.81	8.253
375.01	8.261
375.22	8.243
375.43	8.291
375.64	8.331
375.84	8.338
376.05	8.388
376.26	8.425
376.46	8.486
376.67	8.538
376.88	8.554
377.09	8.571
377.29	8.624
377.50	8.641
377.71	8.654
377.91	8.634
378.12	8.686
378.33	8.645
378.54	8.649
378.74	8.684
378.95	8.692
379.16	8.686
379.36	8.680
379.57	8.720
379.78	8.736
379.99	8.742
380.19	8.777
380.40	8.785
380.61	8.804
380.81	8.825
381.02	8.866
381.23	8.909
381.43	8.947
381.64	8.986
381.85	8.981
382.05	8.998
382.26	9.038
382.47	9.032
382.67	9.097
382.88	9.103
383.09	9.108
383.30	9.060
383.50	9.054
383.71	9.100
383.92	9.122
384.12	9.178
384.33	9.194
384.54	9.192
384.74	9.241
384.95	9.229
385.16	9.300
385.36	9.314
385.57	9.388
385.78	9.408
385.98	9.453
386.19	9.537
386.40	9.551
386.60	9.587
386.81	9.627
387.02	9.662
387.22	9.702
387.43	9.697
387.64	9.749
387.84	9.761
388.05	9.820
388.26	9.836
388.46	9.837
388.67	9.845
388.88	9.884
389.08	9.918
389.29	9.939
389.49	10.004
389.70	10.024
389.91	10.022
390.11	10.027
390.32	10.019
390.53	10.033
390.73	10.046
390.94	10.077
391.15	10.059
391.35	10.084
391.56	10.123
391.77	10.107
391.97	10.142
392.18	10.200
392.38	10.230
392.59	10.272
392.80	10.290
393.00	10.292
393.21	10.315
393.42	10.372
393.62	10.392
393.83	10.386
394.04	10.391
394.24	10.407
394.45	10.409
394.65	10.458
394.86	10.486
395.07	10.500
395.27	10.570
395.48	10.559
395.68	10.606
395.89	10.632
396.10	10.669
396.30	10.722
396.51	10.754
396.72	10.778
396.92	10.784
397.13	10.805
397.33	10.829
397.54	10.828
397.75	10.903
397.95	10.924
398.16	10.934
398.36	10.954
398.57	10.972
398.78	10.985
398.98	11.001
399.19	11.041
399.39	11.072
399.60	11.088
399.81	11.095
400.01	11.093
400.22	11.093
400.42	11.145
400.63	11.181
400.84	11.215
401.04	11.247
401.25	11.273
401.45	11.304
401.66	11.344
401.86	11.391
402.07	11.429
402.28	11.461
402.48	11.502
402.69	11.510
402.89	11.526
403.10	11.527
403.31	11.573
403.51	11.577
403.72	11.576
403.92	11.621
404.13	11.659
404.33	11.710
404.54	11.713
404.75	11.746
404.95	11.766
405.16	11.784
405.36	11.812
405.57	11.829
405.77	11.880
405.98	11.906
406.18	11.913
406.39	11.907
406.60	11.899
406.80	11.960
407.01	11.973
407.21	12.029
407.42	12.058
407.62	12.092
407.83	12.101
408.03	12.165
408.24	12.208
408.45	12.232
408.65	12.269
408.86	12.323
409.06	12.300
409.27	12.342
409.47	12.311
409.68	12.363
409.88	12.375
410.09	12.388
410.29	12.384
410.50	12.421
410.71	12.432
410.91	12.458
411.12	12.459
411.32	12.529
411.53	12.552
411.73	12.625
411.94	12.640
412.14	12.672
412.35	12.719
412.55	12.719
412.76	12.745
412.96	12.788
413.17	12.808
413.37	12.859
413.58	12.899
413.78	12.909
413.99	12.905
414.19	12.933
414.40	12.966
414.61	12.970
414.81	13.001
415.02	12.983
415.22	12.983
415.43	12.997
415.63	12.995
415.84	12.988
416.04	12.983
416.25	13.026
416.45	13.021
416.66	12.996
416.86	13.020
417.07	13.015
417.27	13.030
417.48	13.027
417.68	13.060
417.89	13.064
418.09	13.074
418.30	13.105
418.50	13.110
418.71	13.135
418.91	13.178
419.12	13.194
419.32	13.233
419.53	13.261
419.73	13.284
419.94	13.246
420.14	13.243
420.34	13.230
420.55	13.228
420.75	13.238
420.96	13.243
421.16	13.263
421.37	13.300
421.57	13.329
421.78	13.364
421.98	13.405
422.19	13.477
422.39	13.528
422.60	13.583
422.80	13.631
423.01	13.628
423.21	13.644
423.42	13.635
423.62	13.611
423.83	13.618
424.03	13.626
424.23	13.635
424.44	13.676
424.64	13.720
424.85	13.783
425.05	13.839
425.26	13.909
425.46	13.969
425.67	14.056
425.87	14.151
426.08	14.213
426.28	14.302
426.48	14.374
426.69	14.404
426.89	14.453
427.10	14.471
427.30	14.520
427.51	14.580
427.71	14.637
427.92	14.628
428.12	14.654
428.32	14.658
428.53	14.634
428.73	14.645
428.94	14.659
429.14	14.648
429.35	14.661
429.55	14.650
429.76	14.662
429.96	14.661
430.16	14.688
430.37	14.721
430.57	14.763
430.78	14.768
430.98	14.782
431.19	14.799
431.39	14.825
431.59	14.818
431.80	14.798
432.00	14.778
432.21	14.783
432.41	14.771
432.61	14.737
432.82	14.755
433.02	14.792
433.23	14.832
433.43	14.875
433.64	14.913
433.84	14.950
434.04	15.028
434.25	15.095
434.45	15.157
434.66	15.245
434.86	15.334
435.06	15.390
435.27	15.447
435.47	15.468
435.68	15.468
435.88	15.490
436.08	15.482
436.29	15.465
436.49	15.460
436.70	15.467
436.90	15.455
437.10	15.453
437.31	15.440
437.51	15.434
437.71	15.458
437.92	15.478
438.12	15.471
438.33	15.478
438.53	15.479
438.73	15.466
438.94	15.464
439.14	15.502
439.35	15.533
439.55	15.555
439.75	15.561
439.96	15.589
440.16	15.602
440.36	15.621
440.57	15.669
440.77	15.723
440.97	15.786
441.18	15.852
441.38	15.897
441.59	15.935
441.79	15.997
441.99	16.053
442.20	16.087
442.40	16.152
442.60	16.204
442.81	16.257
443.01	16.273
443.21	16.274
443.42	16.253
443.62	16.225
443.83	16.202
444.03	16.173
444.23	16.155
444.44	16.118
444.64	16.097
444.84	16.066
445.05	16.026
445.25	15.990
445.45	15.965
445.66	15.953
445.86	15.969
446.06	15.985
446.27	16.031
446.47	16.076
446.67	16.111
446.88	16.182
447.08	16.251
447.28	16.321
447.49	16.424
447.69	16.541
447.89	16.648
448.10	16.724
448.30	16.819
448.50	16.868
448.71	16.923
448.91	16.989
449.11	16.984
449.32	17.005
449.52	17.050
449.72	17.069
449.93	17.087
450.13	17.111
450.33	17.156
450.53	17.175
450.74	17.183
450.94	17.171
451.14	17.172
451.35	17.181
451.55	17.194
451.75	17.196
451.96	17.204
452.16	17.190
452.36	17.192
452.57	17.185
452.77	17.206
452.97	17.239
453.17	17.273
453.38	17.308
453.58	17.342
453.78	17.390
453.99	17.404
454.19	17.410
454.39	17.442
454.59	17.461
454.80	17.507
455.00	17.519
455.20	17.568
455.41	17.607
455.61	17.663
455.81	17.696
456.01	17.730
456.22	17.802
456.42	17.834
456.62	17.868
456.83	17.890
457.03	17.884
457.23	17.903
457.43	17.853
457.64	17.861
457.84	17.821
458.04	17.806
458.25	17.770
458.45	17.710
458.65	17.670
458.85	17.619
459.06	17.553
459.26	17.531
459.46	17.519
459.66	17.563
459.87	17.610
460.07	17.661
460.27	17.723
460.47	17.807
460.68	17.898
460.88	18.008
461.08	18.119
461.28	18.275
461.49	18.379
461.69	18.483
461.89	18.545
462.09	18.586
462.30	18.631
462.50	18.678
462.70	18.679
462.90	18.704
463.11	18.715
463.31	18.731
463.51	18.729
463.71	18.741
463.92	18.752
464.12	18.762
464.32	18.773
464.52	18.768
464.72	18.765
464.93	18.782
465.13	18.784
465.33	18.794
465.53	18.791
465.74	18.778
465.94	18.789
466.14	18.781
466.34	18.783
466.54	18.792
466.75	18.804
466.95	18.827
467.15	18.858
467.35	18.876
467.56	18.901
467.76	18.960
467.96	19.009
468.16	19.065
468.36	19.124
468.57	19.180
468.77	19.218
468.97	19.259
469.17	19.273
469.37	19.284
469.58	19.306
469.78	19.303
469.98	19.319
470.18	19.353
470.38	19.367
470.59	19.391
470.79	19.414
470.99	19.452
471.19	19.492
471.39	19.509
471.60	19.531
471.80	19.526
472.00	19.515
472.20	19.507
472.40	19.488
472.61	19.502
472.81	19.518
473.01	19.540
473.21	19.568
473.41	19.592
473.61	19.669
473.82	19.701
474.02	19.779
474.22	19.869
474.42	19.899
474.62	19.976
474.82	20.013
475.03	20.049
475.23	20.051
475.43	20.042
475.63	20.036
475.83	19.986
476.03	19.995
476.24	19.983
476.44	19.957
476.64	19.985
476.84	19.958
477.04	19.976
477.24	19.975
477.45	20.018
477.65	20.033
477.85	20.057
478.05	20.063
478.25	20.085
478.45	20.113
478.65	20.156
478.86	20.176
479.06	20.211
479.26	20.235
479.46	20.267
479.66	20.265
479.86	20.295
480.06	20.294
480.27	20.316
480.47	20.299
480.67	20.286
480.87	20.278
481.07	20.275
481.27	20.278
481.47	20.270
481.68	20.274
481.88	20.263
482.08	20.249
482.28	20.223
482.48	20.133
482.68	20.010
482.88	19.903
483.08	20.040
483.29	20.292
483.49	20.485
483.69	20.446
483.89	20.396
484.09	20.465
484.29	20.559
484.49	20.671
484.69	20.823
484.89	21.019
485.10	21.237
485.30	21.305
485.50	21.223
485.70	21.124
485.90	21.256
486.10	21.377
486.30	21.302
486.50	21.132
486.70	20.936
486.90	20.764
487.11	20.614
487.31	20.518
487.51	20.462
487.71	20.460
487.91	20.485
488.11	20.550
488.31	20.650
488.51	20.765
488.71	20.915
488.91	21.070
489.11	21.215
489.32	21.373
489.52	21.513
489.72	21.650
489.92	21.733
490.12	21.749
490.32	21.661
490.52	21.506
490.72	21.317
490.92	21.131
491.12	21.014
491.32	20.938
491.52	20.909
491.72	20.923
491.92	20.953
492.13	21.007
492.33	21.095
492.53	21.226
492.73	21.394
492.93	21.588
493.13	21.794
493.33	21.985
493.53	22.160
493.73	22.277
493.93	22.352
494.13	22.375
494.33	22.378
494.53	22.353
494.73	22.294
494.93	22.243
495.13	22.194
495.33	22.164
495.53	22.119
495.73	22.082
495.94	22.033
496.14	21.991
496.34	21.982
496.54	21.981
496.74	21.975
496.94	22.009
497.14	22.015
497.34	22.043
497.54	22.057
497.74	22.094
497.94	22.133
498.14	22.190
498.34	22.259
498.54	22.314
498.74	22.372
498.94	22.422
499.14	22.449
499.34	22.483
499.54	22.492
499.74	22.541
499.94	22.571
500.14	22.611
500.34	22.659
500.54	22.693
500.74	22.708
500.94	22.713
501.14	22.746
501.34	22.765
501.54	22.791
501.74	22.846
501.94	22.829
502.14	22.854
502.34	22.859
502.54	22.863
502.74	22.862
502.94	22.873
503.14	22.877
503.34	22.857
503.54	22.841
503.74	22.835
503.94	22.821
504.14	22.858
504.34	22.885
504.54	22.908
504.74	22.931
504.94	22.945
505.14	22.975
505.34	23.024
505.54	23.069
505.74	23.113
505.94	23.137
506.14	23.169
506.34	23.194
506.54	23.194
506.74	23.200
506.94	23.200
507.14	23.192
507.34	23.174
507.54	23.140
507.74	23.123
507.94	23.114
508.14	23.124
508.34	23.128
508.54	23.122
508.74	23.149
508.94	23.178
509.13	23.219
509.33	23.259
509.53	23.323
509.73	23.375
509.93	23.442
510.13	23.492
510.33	23.536
510.53	23.571
510.73	23.620
510.93	23.622
511.13	23.624
511.33	23.613
511.53	23.627
511.73	23.611
511.93	23.621
512.13	23.628
512.33	23.650
512.53	23.668
512.73	23.701
512.92	23.723
513.12	23.770
513.32	23.833
513.52	23.878
513.72	23.917
513.92	23.975
514.12	24.029
514.32	24.072
514.52	24.082
514.72	24.118
514.92	24.123
515.12	24.119
515.32	24.125
515.52	24.117
515.71	24.137
515.91	24.143
516.11	24.137
516.31	24.125
516.51	24.093
516.71	24.106
516.91	24.064
517.11	24.033
517.31	24.010
517.51	23.953
517.71	23.896
517.90	23.836
518.10	23.811
518.30	23.814
518.50	23.805
518.70	23.824
518.90	23.852
519.10	23.914
519.30	23.986
519.50	24.060
519.69	24.166
519.89	24.276
520.09	24.399
520.29	24.505
520.49	24.587
520.69	24.670
520.89	24.739
521.09	24.781
521.29	24.812
521.48	24.843
521.68	24.866
521.88	24.863
522.08	24.870
522.28	24.880
522.48	24.869
522.68	24.873
522.88	24.893
523.07	24.910
523.27	24.929
523.47	24.930
523.67	24.931
523.87	24.933
524.07	24.932
524.27	24.907
524.47	24.840
524.66	24.779
524.86	24.702
525.06	24.646
525.26	24.599
525.46	24.585
525.66	24.575
525.85	24.586
526.05	24.601
526.25	24.649
526.45	24.694
526.65	24.776
526.85	24.843
527.05	24.886
527.24	24.860
527.44	24.742
527.64	24.566
527.84	24.431
528.04	24.330
528.24	24.281
528.43	24.262
528.63	24.276
528.83	24.332
529.03	24.416
529.23	24.518
529.43	24.646
529.62	24.825
529.82	25.042
530.02	25.280
530.22	25.520
530.42	25.753
530.62	25.941
530.81	26.088
531.01	26.132
531.21	26.132
531.41	26.100
531.61	26.022
531.80	25.910
532.00	25.748
532.20	25.584
532.40	25.403
532.60	25.222
532.79	25.095
532.99	25.017
533.19	25.008
533.39	25.013
533.59	25.050
533.78	25.096
533.98	25.191
534.18	25.318
534.38	25.454
534.58	25.630
534.77	25.835
534.97	26.033
535.17	26.180
535.37	26.232
535.57	26.229
535.76	26.133
535.96	26.033
536.16	25.913
536.36	25.813
536.56	25.743
536.75	25.703
536.95	25.689
537.15	25.691
537.35	25.751
537.54	25.846
537.74	25.962
537.94	26.112
538.14	26.267
538.34	26.403
538.53	26.537
538.73	26.619
538.93	26.653
539.13	26.677
539.32	26.684
539.52	26.605
539.72	26.494
539.92	26.334
540.11	26.142
540.31	25.906
540.51	25.693
540.71	25.507
540.90	25.404
541.10	25.356
541.30	25.359
541.50	25.402
541.69	25.475
541.89	25.570
542.09	25.681
542.29	25.804
542.48	25.977
542.68	26.172
542.88	26.379
543.08	26.581
543.27	26.751
543.47	26.862
543.67	26.940
543.87	26.964
544.06	26.961
544.26	26.950
544.46	26.955
544.65	26.930
544.85	26.919
545.05	26.897
545.25	26.862
545.44	26.822
545.64	26.768
545.84	26.686
546.04	26.633
546.23	26.591
546.43	26.577
546.63	26.569
546.82	26.609
547.02	26.640
547.22	26.693
547.42	26.757
547.61	26.855
547.81	26.951
548.01	27.050
548.20	27.171
548.40	27.278
548.60	27.366
548.79	27.451
548.99	27.489
549.19	27.514
549.39	27.555
549.58	27.550
549.78	27.518
549.98	27.495
550.17	27.479
550.37	27.480
550.57	27.445
550.76	27.433
550.96	27.406
551.16	27.389
551.35	27.360
551.55	27.299
551.75	27.259
551.94	27.210
552.14	27.188
552.34	27.167
552.53	27.144
552.73	27.176
552.93	27.183
553.13	27.234
553.32	27.271
553.52	27.348
553.72	27.437
553.91	27.521
554.11	27.599
554.31	27.693
554.50	27.756
554.70	27.791
554.89	27.828
555.09	27.858
555.29	27.861
555.48	27.873
555.68	27.895
555.88	27.903
556.07	27.901
556.27	27.913
556.47	27.892
556.66	27.895
556.86	27.910
557.06	27.901
557.25	27.916
557.45	27.948
557.65	27.961
557.84	27.943
558.04	27.957
558.23	27.971
558.43	27.995
558.63	28.025
558.82	28.042
559.02	28.097
559.22	28.117
559.41	28.148
559.61	28.144
559.81	28.153
560.00	28.137
560.20	28.139
560.39	28.116
560.59	28.108
560.79	28.104
560.98	28.124
561.18	28.102
561.37	28.119
561.57	28.116
561.77	28.123
561.96	28.157
562.16	28.208
562.36	28.225
562.55	28.290
562.75	28.316
562.94	28.348
563.14	28.377
563.34	28.388
563.53	28.409
563.73	28.431
563.92	28.453
564.12	28.462
564.32	28.461
564.51	28.459
564.71	28.405
564.90	28.384
565.10	28.340
565.29	28.289
565.49	28.260
565.69	28.218
565.88	28.174
566.08	28.160
566.27	28.158
566.47	28.166
566.67	28.212
566.86	28.277
567.06	28.362
567.25	28.433
567.45	28.530
567.64	28.614
567.84	28.714
568.04	28.801
568.23	28.852
568.43	28.866
568.62	28.890
568.82	28.875
569.01	28.868
569.21	28.837
569.41	28.860
569.60	28.849
569.80	28.854
569.99	28.810
570.19	28.799
570.38	28.779
570.58	28.776
570.77	28.734
570.97	28.725
571.17	28.726
571.36	28.722
571.56	28.689
571.75	28.664
571.95	28.646
572.14	28.688
572.34	28.721
572.53	28.765
572.73	28.826
572.92	28.904
573.12	28.974
573.31	29.033
573.51	29.072
573.70	29.126
573.90	29.160
574.10	29.166
574.29	29.157
574.49	29.143
574.68	29.097
574.88	29.075
575.07	29.069
575.27	29.063
575.46	29.058
575.66	29.082
575.85	29.094
576.05	29.146
576.24	29.208
576.44	29.253
576.63	29.297
576.83	29.370
577.02	29.389
577.22	29.439
577.41	29.462
577.61	29.489
577.80	29.512
578.00	29.535
578.19	29.548
578.39	29.583
578.58	29.612
578.78	29.635
578.97	29.651
579.17	29.684
579.36	29.678
579.56	29.693
579.75	29.705
579.95	29.692
580.14	29.720
580.34	29.705
580.53	29.690
580.73	29.663
580.92	29.687
581.12	29.719
581.31	29.732
581.51	29.741
581.70	29.777
581.89	29.795
582.09	29.808
582.28	29.793
582.48	29.805
582.67	29.817
582.87	29.885
583.06	29.905
583.26	29.903
583.45	29.925
583.65	29.937
583.84	29.920
584.04	29.934
584.23	29.964
584.43	29.982
584.62	29.999
584.81	29.991
585.01	29.968
585.20	29.952
585.40	29.966
585.59	29.961
585.79	29.975
585.98	30.003
586.18	30.007
586.37	30.021
586.56	30.031
586.76	30.050
586.95	30.086
587.15	30.099
587.34	30.106
587.54	30.118
587.73	30.151
587.92	30.176
588.12	30.179
588.31	30.204
588.51	30.192
588.70	30.191
588.90	30.214
589.09	30.216
589.28	30.201
589.48	30.192
589.67	30.204
589.87	30.210
590.06	30.189
590.25	30.192
590.45	30.180
590.64	30.215
590.84	30.241
591.03	30.255
591.23	30.287
591.42	30.317
591.61	30.374
591.81	30.388
592.00	30.398
592.20	30.439
592.39	30.461
592.58	30.460
592.78	30.436
592.97	30.432
593.17	30.410
593.36	30.353
593.55	30.356
593.75	30.332
593.94	30.311
594.13	30.331
594.33	30.345
594.52	30.368
594.72	30.400
594.91	30.429
595.10	30.458
595.30	30.486
595.49	30.539
595.68	30.522
595.88	30.496
596.07	30.440
596.27	30.356
596.46	30.275
596.65	30.179
596.85	30.144
597.04	30.144
597.23	30.150
597.43	30.159
597.62	30.205
597.81	30.275
598.01	30.349
598.20	30.490
598.40	30.611
598.59	30.742
598.78	30.878
598.98	30.986
599.17	31.058
599.36	31.114
599.56	31.140
599.75	31.119
599.94	31.116
600.14	31.136
600.33	31.105
600.52	31.101
600.72	31.084
600.91	31.066
601.10	31.057
601.30	31.043
601.49	31.030
601.68	31.029
601.88	31.029
602.07	30.996
602.26	30.947
602.46	30.872
602.65	30.796
602.84	30.774
603.04	30.731
603.23	30.666
603.42	30.608
603.62	30.570
603.81	30.519
604.00	30.468
604.20	30.433
604.39	30.402
604.58	30.440
604.77	30.477
604.97	30.515
605.16	30.576
605.35	30.658
605.55	30.741
605.74	30.833
605.93	30.979
606.13	31.104
606.32	31.231
606.51	31.372
606.70	31.468
606.90	31.535
607.09	31.568
607.28	31.607
607.48	31.614
607.67	31.616
607.86	31.553
608.05	31.459
608.25	31.373
608.44	31.262
608.63	31.145
608.83	31.027
609.02	30.962
609.21	30.895
609.40	30.860
609.60	30.870
609.79	30.871
609.98	30.922
610.17	30.972
610.37	31.062
610.56	31.154
610.75	31.279
610.95	31.412
611.14	31.540
611.33	31.666
611.52	31.772
611.72	31.808
611.91	31.863
612.10	31.889
612.29	31.909
612.49	31.898
612.68	31.939
612.87	31.919
613.06	31.903
613.26	31.877
613.45	31.859
613.64	31.802
613.83	31.794
614.03	31.762
614.22	31.770
614.41	31.744
614.60	31.771
614.79	31.763
614.99	31.783
615.18	31.792
615.37	31.814
615.56	31.830
615.76	31.853
615.95	31.875
616.14	31.914
616.33	31.925
616.53	31.941
616.72	31.922
616.91	31.909
617.10	31.886
617.29	31.889
617.49	31.887
617.68	31.887
617.87	31.914
618.06	31.930
618.25	31.922
618.45	31.916
618.64	31.943
618.83	31.952
619.02	31.966
619.21	31.989
619.41	32.019
619.60	32.049
619.79	32.075
619.98	32.089
620.17	32.110
620.37	32.133
620.56	32.148
620.75	32.157
620.94	32.177
621.13	32.178
621.33	32.201
621.52	32.200
621.71	32.193
621.90	32.183
622.09	32.204
622.28	32.192
622.48	32.215
622.67	32.222
622.86	32.233
623.05	32.251
623.24	32.285
623.44	32.296
623.63	32.294
623.82	32.318
624.01	32.318
624.20	32.276
624.39	32.287
624.59	32.306
624.78	32.301
624.97	32.297
625.16	32.264
625.35	32.233
625.54	32.194
625.73	32.154
625.93	32.105
626.12	32.083
626.31	32.051
626.50	32.008
626.69	31.945
626.88	31.919
627.07	31.923
627.27	31.950
627.46	31.968
627.65	31.995
627.84	32.058
628.03	32.116
628.22	32.184
628.41	32.244
628.61	32.304
628.80	32.385
628.99	32.465
629.18	32.464
629.37	32.488
629.56	32.511
629.75	32.557
629.94	32.576
630.14	32.568
630.33	32.560
630.52	32.578
630.71	32.613
630.90	32.612
631.09	32.604
631.28	32.661
631.47	32.656
631.66	32.690
631.86	32.683
632.05	32.687
632.24	32.684
632.43	32.694
632.62	32.698
632.81	32.655
633.00	32.632
633.19	32.599
633.38	32.560
633.57	32.555
633.77	32.507
633.96	32.507
634.15	32.470
634.34	32.486
634.53	32.489
634.72	32.521
634.91	32.603
635.10	32.642
635.29	32.678
635.48	32.731
635.67	32.767
635.86	32.831
636.05	32.847
636.25	32.899
636.44	32.936
636.63	32.924
636.82	32.930
637.01	32.891
637.20	32.918
637.39	32.926
637.58	32.932
637.77	32.965
637.96	32.973
638.15	32.990
638.34	33.024
638.53	33.027
638.72	33.052
638.91	33.065
639.10	33.124
639.30	33.112
639.49	33.085
639.68	33.103
639.87	33.102
640.06	33.130
640.25	33.155
640.44	33.153
640.63	33.166
640.82	33.223
641.01	33.192
641.20	33.142
641.39	33.120
641.58	33.171
641.77	33.155
641.96	33.150
642.15	33.141
642.34	33.134
642.53	33.131
642.72	33.152
642.91	33.108
643.10	33.163
643.29	33.213
643.48	33.265
643.67	33.274
643.86	33.283
644.05	33.306
644.24	33.297
644.43	33.289
644.62	33.284
644.81	33.254
645.00	33.320
645.19	33.323
645.38	33.323
645.57	33.264
645.76	33.302
645.95	33.306
646.14	33.300
646.33	33.324
646.52	33.359
646.71	33.378
646.90	33.386
647.09	33.368
647.28	33.405
647.47	33.377
647.66	33.458
647.85	33.452
648.04	33.474
648.23	33.524
648.42	33.561
648.61	33.593
648.80	33.607
648.99	33.607
649.18	33.582
649.37	33.544
649.56	33.563
649.75	33.512
649.94	33.485
650.13	33.480
650.32	33.471
650.51	33.425
650.70	33.394
650.89	33.406
651.08	33.423
651.27	33.440
651.46	33.424
651.65	33.426
651.83	33.469
652.02	33.470
652.21	33.485
652.40	33.505
652.59	33.550
652.78	33.592
652.97	33.605
653.16	33.659
653.35	33.698
653.54	33.752
653.73	33.775
653.92	33.805
654.11	33.835
654.30	33.834
654.49	33.810
654.68	33.803
654.86	33.792
655.05	33.788
655.24	33.769
655.43	33.756
655.62	33.752
655.81	33.735
656.00	33.761
656.19	33.748
656.38	33.780
656.57	33.784
656.76	33.762
656.95	33.739
657.13	33.732
657.32	33.715
657.51	33.705
657.70	33.697
657.89	33.672
658.08	33.586
658.27	33.537
658.46	33.449
658.65	33.382
658.84	33.348
659.02	33.324
659.21	33.329
659.40	33.329
659.59	33.356
659.78	33.380
659.97	33.444
660.16	33.515
660.35	33.610
660.54	33.723
660.72	33.831
660.91	33.916
661.10	34.021
661.29	34.073
661.48	34.148
661.67	34.181
661.86	34.197
662.05	34.234
662.23	34.207
662.42	34.203
662.61	34.182
662.80	34.170
662.99	34.212
663.18	34.171
663.37	34.164
663.56	34.171
663.74	34.200
663.93	34.194
664.12	34.180
664.31	34.218
664.50	34.220
664.69	34.221
664.87	34.231
665.06	34.208
665.25	34.217
665.44	34.251
665.63	34.232
665.82	34.216
666.01	34.228
666.19	34.226
666.38	34.246
666.57	34.274
666.76	34.266
666.95	34.266
667.14	34.270
667.32	34.292
667.51	34.281
667.70	34.250
667.89	34.204
668.08	34.208
668.26	34.190
668.45	34.170
668.64	34.149
668.83	34.143
669.02	34.159
669.21	34.198
669.39	34.223
669.58	34.205
669.77	34.232
669.96	34.274
670.15	34.297
670.33	34.353
670.52	34.400
670.71	34.431
670.90	34.478
671.09	34.500
671.27	34.495
671.46	34.495
671.65	34.523
671.84	34.548
672.03	34.576
672.21	34.582
672.40	34.570
672.59	34.556
672.78	34.576
672.96	34.613
673.15	34.625
673.34	34.634
673.53	34.616
673.72	34.610
673.90	34.617
674.09	34.653
674.28	34.627
674.47	34.618
674.65	34.622
674.84	34.631
675.03	34.597
675.22	34.642
675.41	34.646
675.59	34.664
675.78	34.713
675.97	34.741
676.16	34.702
676.34	34.751
676.53	34.793
676.72	34.792
676.91	34.797
677.09	34.808
677.28	34.770
677.47	34.775
677.66	34.768
677.84	34.770
678.03	34.706
678.22	34.685
678.41	34.650
678.59	34.598
678.78	34.607
678.97	34.587
679.15	34.536
679.34	34.476
679.53	34.421
679.72	34.381
679.90	34.332
680.09	34.304
680.28	34.316
680.47	34.325
680.65	34.374
680.84	34.390
681.03	34.420
681.21	34.503
681.40	34.587
681.59	34.648
681.78	34.702
681.96	34.725
682.15	34.800
682.34	34.839
682.52	34.880
682.71	34.857
682.90	34.841
683.08	34.790
683.27	34.769
683.46	34.765
683.65	34.774
683.83	34.806
684.02	34.843
684.21	34.873
684.39	34.868
684.58	34.877
684.77	34.900
684.95	34.923
685.14	35.009
685.33	35.025
685.51	35.030
685.70	35.072
685.89	35.086
686.07	35.114
686.26	35.145
686.45	35.157
686.63	35.136
686.82	35.164
687.01	35.162
687.20	35.137
687.38	35.091
687.57	35.073
687.75	35.041
687.94	35.023
688.13	34.993
688.31	34.981
688.50	35.003
688.69	35.061
688.87	35.034
689.06	35.061
689.25	35.081
689.43	35.156
689.62	35.202
689.81	35.224
689.99	35.255
690.18	35.285
690.37	35.285
690.55	35.278
690.74	35.230
690.93	35.282
691.11	35.255
691.30	35.289
691.48	35.293
691.67	35.296
691.86	35.313
692.04	35.334
692.23	35.373
692.42	35.379
692.60	35.403
692.79	35.442
692.97	35.452
693.16	35.512
693.35	35.481
693.53	35.472
693.72	35.480
693.90	35.489
694.09	35.502
694.28	35.477
694.46	35.516
694.65	35.489
694.83	35.466
695.02	35.426
695.21	35.402
695.39	35.385
695.58	35.366
695.76	35.346
695.95	35.319
696.14	35.267
696.32	35.230
696.51	35.132
696.69	35.107
696.88	35.075
697.07	35.008
697.25	34.960
697.44	34.892
697.62	34.833
697.81	34.698
697.99	34.607
698.18	34.495
698.37	34.415
698.55	34.383
698.74	34.355
698.92	34.387
699.11	34.418
699.29	34.437
699.48	34.505
699.67	34.617
699.85	34.755
700.04	34.917
700.22	35.129
700.41	35.319
700.59	35.525
700.78	35.693
700.96	35.781
701.15	35.922
701.34	36.002
701.52	36.052
701.71	36.011
701.89	36.018
702.08	35.935
702.26	35.826
702.45	35.784
702.63	35.711
702.82	35.672
703.00	35.635
703.19	35.546
703.38	35.541
703.56	35.528
703.75	35.585
703.93	35.538
704.12	35.553
704.30	35.604
704.49	35.593
704.67	35.563
704.86	35.566
705.04	35.560
705.23	35.590
705.41	35.600
705.60	35.584
705.78	35.589
705.97	35.616
706.15	35.599
706.34	35.551
706.52	35.529
706.71	35.545
706.89	35.493
707.08	35.473
707.26	35.489
707.45	35.446
707.63	35.450
707.82	35.424
708.00	35.419
708.19	35.406
708.37	35.399
708.56	35.381
708.74	35.384
708.93	35.399
709.11	35.411
709.30	35.372
709.48	35.417
709.67	35.444
709.85	35.470
710.04	35.421
710.22	35.451
710.41	35.438
710.59	35.435
710.77	35.420
710.96	35.432
711.14	35.434
711.33	35.474
711.51	35.426
711.70	35.454
711.88	35.439
712.07	35.523
712.25	35.555
712.44	35.597
712.62	35.643
712.80	35.653
712.99	35.693
713.17	35.760
713.36	35.742
713.54	35.833
713.73	35.840
713.91	35.856
714.10	35.826
714.28	35.789
714.46	35.809
714.65	35.829
714.83	35.831
715.02	35.813
715.20	35.751
715.39	35.741
715.57	35.638
715.75	35.596
715.94	35.568
716.12	35.558
716.31	35.568
716.49	35.581
716.68	35.594
716.86	35.614
717.04	35.619
717.23	35.614
717.41	35.609
717.60	35.702
717.78	35.736
717.96	35.775
718.15	35.845
718.33	35.884
718.52	35.879
718.70	35.876
718.88	35.877
719.07	35.846
719.25	35.881
719.44	35.881
719.62	35.834
719.80	35.752
719.99	35.708
720.17	35.654
720.36	35.676
720.54	35.673
720.72	35.677
720.91	35.707
721.09	35.714
721.27	35.768
721.46	35.820
721.64	35.795
721.83	35.872
722.01	35.866
722.19	35.930
722.38	35.917
722.56	35.858
722.74	35.887
722.93	35.828
723.11	35.812
723.30	35.828
723.48	35.824
723.66	35.878
723.85	35.846
724.03	35.915
724.21	35.863
724.40	35.854
724.58	35.883
724.76	35.777
724.95	35.744
725.13	35.781
725.31	35.692
725.50	35.675
725.68	35.665
725.86	35.678
726.05	35.611
726.23	35.610
726.41	35.568
726.60	35.520
726.78	35.515
726.96	35.553
727.15	35.593
727.33	35.584
727.51	35.587
727.70	35.600
727.88	35.585
728.06	35.611
728.25	35.620
728.43	35.629
728.61	35.688
728.80	35.694
728.98	35.719
729.16	35.650
729.34	35.657
729.53	35.675
729.71	35.674
729.89	35.645
730.08	35.654
730.26	35.675
730.44	35.661
730.63	35.618
730.81	35.626
730.99	35.594
731.17	35.611
731.36	35.625
731.54	35.598
731.72	35.580
731.91	35.649
732.09	35.640
732.27	35.616
732.45	35.629
732.64	35.677
732.82	35.671
733.00	35.696
733.19	35.696
733.37	35.674
733.55	35.713
733.73	35.712
733.92	35.715
734.10	35.699
734.28	35.724
734.46	35.753
734.65	35.780
734.83	35.853
735.01	35.841
735.19	35.901
735.38	35.960
735.56	35.917
735.74	35.923
735.92	35.947
736.11	35.973
736.29	35.971
736.47	35.939
736.65	35.949
736.84	35.891
737.02	35.909
737.20	35.852
737.38	35.811
737.57	35.822
737.75	35.815
737.93	35.772
738.11	35.794
738.30	35.750
738.48	35.753
738.66	35.698
738.84	35.748
739.02	35.731
739.21	35.733
739.39	35.736
739.57	35.712
739.75	35.728
739.93	35.730
740.12	35.688
740.30	35.732
740.48	35.762
740.66	35.742
740.85	35.744
741.03	35.717
741.21	35.774
741.39	35.786
741.57	35.834
741.76	35.837
741.94	35.890
742.12	35.866
742.30	35.809
742.48	35.790
742.66	35.876
742.85	35.848
743.03	35.882
743.21	35.869
743.39	35.897
743.57	35.897
743.76	35.914
743.94	35.874
744.12	35.902
744.30	35.949
744.48	36.008
744.66	35.996
744.85	36.076
745.03	36.060
745.21	36.049
745.39	36.025
745.57	36.035
745.75	36.070
745.94	36.060
746.12	36.088
746.30	36.090
746.48	36.001
746.66	35.990
746.84	35.916
747.02	35.964
747.21	35.962
747.39	35.957
747.57	35.896
747.75	35.842
747.93	35.807
748.11	35.782
748.29	35.739
748.48	35.697
748.66	35.667
748.84	35.708
749.02	35.711
749.20	35.660
749.38	35.693
749.56	35.770
749.75	35.746
749.93	35.811
750.11	35.828
750.29	35.853
750.47	35.951
750.65	36.021
750.83	35.988
751.01	35.977
751.19	36.059
751.38	36.050
751.56	36.044
751.74	36.039
751.92	36.005
752.10	35.983
752.28	35.938
752.46	35.946
752.64	35.868
752.82	35.870
753.00	35.888
753.19	35.849
753.37	35.778
753.55	35.759
753.73	35.784
753.91	35.818
754.09	35.808
754.27	35.787
754.45	35.734
754.63	35.754
754.81	35.729
754.99	35.712
755.17	35.679
755.36	35.707
755.54	35.704
755.72	35.664
755.90	35.629
756.08	35.667
756.26	35.735
756.44	35.710
756.62	35.737
756.80	35.748
756.98	35.710
757.16	35.738
757.34	35.702
757.52	35.647
757.70	35.666
757.88	35.669
758.06	35.672
758.24	35.678
758.42	35.687
758.61	35.702
758.79	35.683
758.97	35.696
759.15	35.641
759.33	35.669
759.51	35.651
759.69	35.681
759.87	35.706
760.05	35.675
760.23	35.728
760.41	35.702
760.59	35.654
760.77	35.681
760.95	35.708
761.13	35.730
761.31	35.697
761.49	35.680
761.67	35.649
761.85	35.566
762.03	35.555
762.21	35.433
762.39	35.425
762.57	35.371
762.75	35.287
762.93	35.233
763.11	35.224
763.29	35.180
763.47	35.152
763.65	35.120
763.83	35.158
764.01	35.195
764.19	35.236
764.37	35.303
764.55	35.357
764.73	35.406
764.91	35.473
765.09	35.490
765.27	35.575
765.45	35.684
765.63	35.756
765.81	35.782
765.99	35.773
766.17	35.806
766.35	35.767
766.53	35.807
766.71	35.840
766.89	35.789
767.07	35.825
767.25	35.787
767.43	35.739
767.61	35.748
767.78	35.719
767.96	35.759
768.14	35.759
768.32	35.797
768.50	35.704
768.68	35.709
768.86	35.699
769.04	35.683
769.22	35.735
769.40	35.770
769.58	35.798
769.76	35.880
769.94	35.862
770.12	35.819
770.30	35.867
770.48	35.865
770.66	35.829
770.84	35.800
771.01	35.824
771.19	35.850
771.37	35.844
771.55	35.894
771.73	35.803
771.91	35.846
772.09	35.893
772.27	35.893
772.45	35.967
772.63	35.997
772.81	36.009
772.99	35.992
773.16	36.000
773.34	35.974
773.52	36.026
773.70	36.112
773.88	36.099
774.06	36.019
774.24	35.886
774.42	35.798
774.60	35.715
774.78	35.827
774.95	35.816
775.13	35.796
775.31	35.701
775.49	35.562
775.67	35.580
775.85	35.466
776.03	35.538
776.21	35.572
776.38	35.577
776.56	35.600
776.74	35.472
776.92	35.564
777.10	35.531
777.28	35.675
777.46	35.735
777.64	35.655
777.81	35.685
777.99	35.651
778.17	35.663
778.35	35.666
778.53	35.724
778.71	35.930
778.89	35.872
779.06	35.936
779.24	35.924
779.42	35.929
779.60	35.958
779.78	36.080
779.96	36.119
780.13	36.056
780.31	36.116
780.49	36.041
780.67	35.945
780.85	35.937
781.03	35.943
781.20	35.942
781.38	35.773
781.56	35.763
781.74	35.744
781.92	35.690
782.10	35.788
782.27	35.754
782.45	35.788
782.63	35.675
782.81	35.619
782.99	35.607
783.17	35.612
783.34	35.768
783.52	35.686
783.70	35.537
783.88	35.614
784.06	35.608
784.23	35.606
784.41	35.630
784.59	35.683
784.77	35.679
784.95	35.651
785.12	35.638
785.30	35.618
785.48	35.689
785.66	35.774
785.83	35.724
786.01	35.734
786.19	35.711
786.37	35.637
786.55	35.541
786.72	35.606
786.90	35.631
787.08	35.624
787.26	35.546
787.43	35.506
787.61	35.517
787.79	35.568
787.97	35.554
788.15	35.624
788.32	35.677
788.50	35.814
788.68	35.772
788.86	35.687
789.03	35.640
789.21	35.704
789.39	35.794
789.57	35.729
789.74	35.733
789.92	35.723
790.10	35.684
790.28	35.732
790.45	35.677
790.63	35.654
790.81	35.641
790.99	35.677
791.16	35.632
791.34	35.551
791.52	35.628
791.69	35.463
791.87	35.460
792.05	35.490
792.23	35.450
792.40	35.437
792.58	35.526
792.76	35.555
792.94	35.582
793.11	35.661
793.29	35.660
793.47	35.623
793.64	35.787
793.82	35.889
794.00	35.906
794.18	35.742
794.35	35.742
794.53	35.812
794.71	35.798
794.88	35.792
795.06	35.681
795.24	35.705
795.41	35.676
795.59	35.556
795.77	35.425
795.94	35.387
796.12	35.586
796.30	35.588
796.48	35.550
796.65	35.501
796.83	35.530
797.01	35.554
797.18	35.490
797.36	35.493
797.54	35.512
797.71	35.554
797.89	35.540
798.07	35.460
798.24	35.392
798.42	35.365
798.60	35.375
798.77	35.295
798.95	35.282
799.13	35.290
799.30	35.331
799.48	35.321
799.66	35.276
799.83	35.270
800.01	35.224
800.18	35.404
800.36	35.395
800.54	35.552
800.71	35.561
800.89	35.577
801.07	35.625
801.24	35.647
801.42	35.803
801.60	35.890
801.77	35.896
801.95	35.865
802.12	35.792
802.30	35.768
802.48	35.671
802.65	35.690
802.83	35.678
803.01	35.690
803.18	35.641
803.36	35.553
803.53	35.397
803.71	35.396
803.89	35.450
804.06	35.386
804.24	35.351
804.41	35.338
804.59	35.422
804.77	35.469
804.94	35.432
805.12	35.457
805.29	35.598
805.47	35.700
805.65	35.770
805.82	35.804
806.00	35.873
806.17	35.859
806.35	35.837
806.53	35.654
806.70	35.672
806.88	35.673
807.05	35.682
807.23	35.473
807.40	35.366
807.58	35.239
807.76	35.089
807.93	35.043
808.11	35.016
808.28	35.085
808.46	35.118
808.63	35.033
808.81	35.039
808.99	35.075
809.16	35.067
809.34	35.155
809.51	35.172
809.69	35.253
809.86	35.171
810.04	35.109
810.21	34.991
810.39	35.154
810.57	35.140
810.74	35.071
810.92	34.778
811.09	34.732
811.27	34.627
811.44	34.613
811.62	34.688
811.79	34.775
811.97	34.908
812.14	35.047
812.32	34.835
812.49	34.743
812.67	34.848
812.84	35.095
813.02	35.234
813.19	35.316
813.37	35.260
813.55	35.248
813.72	35.341
813.90	35.375
814.07	35.332
814.25	35.481
814.42	35.564
814.60	35.454
814.77	35.552
814.95	35.413
815.12	35.545
815.30	35.601
815.47	35.667
815.65	35.620
815.82	35.686
816.00	35.803
816.17	35.759
816.35	35.871
816.52	35.884
816.69	35.691
816.87	35.770
817.04	35.716
817.22	35.844
817.39	35.692
817.57	35.613
817.74	35.601
817.92	35.558
818.09	35.545
818.27	35.468
818.44	35.481
818.62	35.491
818.79	35.624
818.97	35.611
819.14	35.593
819.32	35.663
819.49	35.778
819.66	35.687
819.84	35.703
820.01	35.669
820.19	35.672
820.36	35.710
820.54	35.804
820.71	35.710
820.89	35.757
821.06	35.746
821.23	35.862
821.41	35.800
821.58	35.835
821.76	35.717
821.93	35.612
822.11	35.503
822.28	35.433
822.45	35.341
822.63	35.269
822.80	35.184
822.98	35.147
823.15	35.095
823.33	35.050
823.50	34.994
823.67	34.963
823.85	34.934
824.02	34.921
824.20	34.877
824.37	34.872
824.54	34.914
824.72	34.967
824.89	34.985
825.07	35.044
825.24	35.094
825.41	35.194
825.59	35.241
825.76	35.331
825.94	35.378
826.11	35.491
826.28	35.571
826.46	35.609
826.63	35.631
826.80	35.594
826.98	35.557
827.15	35.554
827.33	35.485
827.50	35.498
827.67	35.457
827.85	35.411
828.02	35.387
828.19	35.340
828.37	35.303
828.54	35.270
828.72	35.259
828.89	35.225
829.06	35.173
829.24	35.149
829.41	35.105
829.58	35.103
829.76	35.169
829.93	35.168
830.10	35.184
830.28	35.164
830.45	35.171
830.62	35.254
830.80	35.190
830.97	35.289
831.14	35.392
831.32	35.476
831.49	35.543
831.66	35.651
831.84	35.732
832.01	35.770
832.18	35.765
832.36	35.755
832.53	35.817
832.70	36.090
832.88	36.090
833.05	36.107
833.22	36.024
833.40	35.969
833.57	35.772
833.74	35.621
833.91	35.547
834.09	35.502
834.26	35.450
834.43	35.418
834.61	35.285
834.78	35.241
834.95	35.116
835.13	35.062
835.30	34.980
835.47	35.000
835.64	35.028
835.82	35.045
835.99	35.020
836.16	35.031
836.34	35.013
836.51	34.998
836.68	35.036
836.85	35.028
837.03	35.132
837.20	35.267
837.37	35.278
837.54	35.279
837.72	35.332
837.89	35.367
838.06	35.418
838.24	35.386
838.41	35.528
838.58	35.353
838.75	35.401
838.93	35.266
839.10	34.999
839.27	34.997
839.44	34.980
839.62	34.866
839.79	35.037
839.96	35.143
840.13	35.193
840.31	35.146
840.48	35.328
840.65	35.361
840.82	35.381
840.99	35.421
841.17	35.318
841.34	35.391
841.51	35.446
841.68	35.356
841.86	35.258
842.03	35.147
842.20	35.095
842.37	34.953
842.55	34.840
842.72	34.733
842.89	34.626
843.06	34.767
843.23	34.692
843.41	34.555
843.58	34.410
843.75	34.593
843.92	35.004
844.09	34.998
844.27	35.014
844.44	35.194
844.61	35.226
844.78	35.511
844.95	35.380
845.13	35.279
845.30	35.361
845.47	35.537
845.64	35.453
845.81	35.201
845.98	35.253
846.16	35.192
846.33	35.255
846.50	35.130
846.67	35.228
846.84	34.995
847.02	35.232
847.19	34.949
847.36	35.089
847.53	35.331
847.70	35.276
847.87	35.401
848.04	35.639
848.22	35.521
848.39	35.874
848.56	35.872
848.73	36.178
848.90	36.094
849.07	36.315
849.25	36.398
849.42	35.904
849.59	35.849
849.76	35.731
849.93	35.459
850.10	35.538
850.27	34.958
850.45	34.968
850.62	34.774
850.79	34.793
850.96	34.802
851.13	34.648
851.30	34.768
851.47	34.722
851.64	34.853
851.82	35.038
851.99	34.987
852.16	35.584
852.33	35.362
852.50	35.427
852.67	35.358
852.84	35.487
853.01	35.548
853.18	35.735
853.35	35.993
853.53	36.250
853.70	36.174
853.87	36.400
854.04	35.993
854.21	36.037
854.38	36.259
854.55	36.332
854.72	36.656
854.89	36.377
855.06	36.172
855.23	35.937
855.41	35.614
855.58	35.864
855.75	35.854
855.92	35.697
856.09	35.818
856.26	35.589
856.43	35.614
856.60	35.126
856.77	35.190
856.94	35.163
857.11	34.980
857.28	35.117
857.45	35.210
857.62	35.066
857.80	35.426
857.97	35.322
858.14	35.446
858.31	35.381
858.48	35.402
858.65	35.540
858.82	35.457
858.99	35.675
859.16	35.573
859.33	35.276
859.50	35.348
859.67	35.024
859.84	35.235
860.01	35.284
860.18	35.061
860.35	35.267
860.52	35.439
860.69	35.685
860.86	35.799
861.03	36.025
861.20	36.011
861.37	36.060
861.54	36.558
861.71	36.625
861.88	36.750
862.05	36.976
862.22	36.999
862.39	36.834
862.56	36.556
862.73	36.517
862.90	36.602
863.07	36.611
863.24	36.283
863.41	35.968
863.58	36.086
863.75	35.844
863.92	35.433
864.09	35.179
864.26	35.010
864.43	35.270
864.60	34.807
864.77	34.478
864.94	34.441
865.11	34.845
865.28	35.085
865.45	34.672
865.62	34.803
865.79	35.118
865.96	35.137
866.13	35.026
866.30	34.852
866.47	35.179
866.64	35.446
866.81	35.517
866.98	35.422
867.15	35.303
867.32	35.497
867.49	35.471
867.66	35.554
867.82	35.621
867.99	35.941
868.16	36.126
868.33	35.888
868.50	35.869
868.67	35.909
868.84	35.945
869.01	36.193
869.18	35.998
869.35	36.117
869.52	36.051
869.69	36.207
869.86	36.176
870.03	36.007
870.19	36.322
870.36	36.260
870.53	36.356
870.70	36.012
870.87	35.784
871.04	35.829
871.21	35.439
871.38	35.383
871.55	35.358
871.72	35.471
871.89	35.564
872.05	35.463
872.22	34.873
872.39	34.981
872.56	35.389
872.73	35.297
872.90	35.175
873.07	35.468
873.24	35.504
873.41	35.480
873.57	35.212
873.74	35.249
873.91	35.159
874.08	35.658
874.25	35.433
874.42	35.194
874.59	35.316
874.76	35.792
874.92	35.670
875.09	35.672
875.26	35.526
875.43	35.839
875.60	35.588
875.77	35.643
875.94	35.688
876.11	35.531
876.27	35.377
876.44	35.111
876.61	35.253
876.78	35.197
876.95	35.345
877.12	35.616
877.28	35.184
877.45	35.625
877.62	35.579
877.79	35.441
877.96	35.598
878.13	35.517
878.29	35.772
878.46	35.280
878.63	35.400
878.80	35.192
878.97	34.876
879.14	35.072
879.30	34.828
879.47	34.888
879.64	34.940
879.81	35.031
879.98	35.349
880.14	35.305
880.31	35.328
880.48	35.325
880.65	35.455
880.82	35.488
880.98	35.328
881.15	35.204
881.32	35.096
881.49	34.947
881.66	34.816
881.82	34.733
881.99	34.701
882.16	34.688
882.33	34.703
882.50	34.647
882.66	34.661
882.83	34.679
883.00	34.691
883.17	34.739
883.33	34.794
883.50	34.901
883.67	34.988
883.84	35.081
884.01	35.141
884.17	35.200
884.34	35.282
884.51	35.340
884.68	35.450
884.84	35.569
885.01	35.659
885.18	35.755
885.35	35.767
885.51	35.849
885.68	35.875
885.85	36.053
886.02	36.080
886.18	36.136
886.35	36.115
886.52	36.072
886.69	35.987
886.85	35.886
887.02	35.879
887.19	35.862
887.35	35.658
887.52	35.588
887.69	35.430
887.86	35.313
888.02	35.342
888.19	35.321
888.36	35.317
888.53	36.288
888.69	35.631
888.86	34.815
889.03	35.847
>>>>>End Spectral Data<<<<<
