OOIBase32 Version 2.0.6.5 Data File
++++++++++++++++++++++++++++++++++++
Date: 03-23-2011, 12:15:51
User: Valued Ocean Optics Customer
Spectrometer Serial Number: USB4C01507
Spectrometer Channel: Master
Integration Time (msec): 62
Spectra Averaged: 20
Boxcar Smoothing: 5
Correct for Electrical Dark: Enabled
Time Normalized: Disabled
Dual-beam Reference: Disabled
Reference Channel: Master
Temperature: Not acquired
Spectrometer Type: S4000
ADC Type: USB4000
Number of Pixels in File: 3648
Graph Title: 
>>>>>Begin Spectral Data<<<<<
178.53	95.380
178.74	675.528
178.96	-51.185
179.18	9.240
179.39	-417.232
179.61	380.121
179.82	-247.695
180.04	-16.442
180.25	40.181
180.47	94.571
180.69	429.766
180.90	137.478
181.12	124.415
181.33	5002.289
181.55	373.843
181.76	11.845
181.98	44.677
182.20	71.368
182.41	36.479
182.63	3.335
182.84	32.963
183.06	34.180
183.27	30.712
183.49	28.510
183.71	27.457
183.92	41.831
184.14	46.575
184.35	37.643
184.57	35.771
184.78	29.658
185.00	29.992
185.21	30.125
185.43	31.135
185.65	38.268
185.86	41.643
186.08	42.458
186.29	32.597
186.51	31.105
186.72	37.624
186.94	44.116
187.15	53.880
187.37	59.675
187.58	51.994
187.80	51.069
188.02	44.328
188.23	45.626
188.45	42.359
188.66	41.391
188.88	27.458
189.09	25.766
189.31	29.946
189.52	23.383
189.74	23.654
189.95	24.192
190.17	25.653
190.38	25.373
190.60	24.296
190.82	22.137
191.03	28.808
191.25	36.897
191.46	30.807
191.68	20.608
191.89	23.745
192.11	24.887
192.32	27.149
192.54	25.638
192.75	22.798
192.97	26.549
193.18	25.193
193.40	20.258
193.61	24.385
193.83	26.869
194.04	32.590
194.26	33.575
194.48	30.487
194.69	31.446
194.91	24.467
195.12	23.143
195.34	18.873
195.55	23.133
195.77	28.894
195.98	31.537
196.20	34.275
196.41	30.425
196.63	37.151
196.84	42.112
197.06	40.310
197.27	43.734
197.49	39.663
197.70	39.752
197.92	45.948
198.13	46.632
198.35	36.832
198.56	33.718
198.78	28.797
198.99	21.129
199.21	5.168
199.42	3.023
199.64	3.527
199.85	9.376
200.07	5.642
200.28	3.452
200.50	-5.269
200.71	-2.193
200.93	-0.137
201.14	0.591
201.36	1.947
201.57	15.926
201.79	16.558
202.00	18.713
202.22	13.078
202.43	18.092
202.65	16.981
202.86	16.177
203.08	13.780
203.29	13.958
203.51	8.203
203.72	9.592
203.94	11.631
204.15	9.431
204.37	6.432
204.58	10.005
204.80	10.520
205.01	13.847
205.22	14.617
205.44	21.458
205.65	20.261
205.87	28.821
206.08	28.918
206.30	27.584
206.51	30.702
206.73	35.952
206.94	36.716
207.16	34.591
207.37	29.946
207.59	30.138
207.80	25.636
208.02	26.800
208.23	25.176
208.45	20.732
208.66	18.200
208.88	15.687
209.09	6.731
209.30	7.969
209.52	4.980
209.73	3.378
209.95	11.997
210.16	12.980
210.38	13.898
210.59	13.407
210.81	18.114
211.02	18.430
211.24	16.002
211.45	19.685
211.66	17.401
211.88	19.232
212.09	22.119
212.31	20.237
212.52	18.831
212.74	16.498
212.95	16.132
213.17	14.824
213.38	12.281
213.60	13.699
213.81	10.381
214.02	12.799
214.24	7.583
214.45	2.072
214.67	-2.779
214.88	-2.944
215.10	-3.275
215.31	0.745
215.53	1.661
215.74	2.622
215.95	5.753
216.17	3.777
216.38	1.728
216.60	7.276
216.81	12.206
217.03	15.273
217.24	16.672
217.45	17.064
217.67	16.348
217.88	15.083
218.10	15.754
218.31	16.038
218.53	18.873
218.74	18.483
218.95	17.884
219.17	15.064
219.38	16.126
219.60	13.679
219.81	13.181
220.03	8.942
220.24	8.966
220.45	9.262
220.67	5.739
220.88	7.906
221.10	9.874
221.31	10.184
221.53	10.222
221.74	9.049
221.95	8.850
222.17	9.122
222.38	9.606
222.60	10.896
222.81	10.752
223.02	13.450
223.24	13.808
223.45	13.080
223.67	12.568
223.88	12.423
224.09	11.465
224.31	13.332
224.52	12.591
224.74	12.463
224.95	11.287
225.16	10.598
225.38	8.647
225.59	8.318
225.81	7.396
226.02	7.241
226.23	7.809
226.45	8.073
226.66	7.204
226.88	6.791
227.09	6.378
227.30	5.727
227.52	5.420
227.73	4.501
227.95	3.950
228.16	3.974
228.37	3.755
228.59	3.684
228.80	3.467
229.02	3.422
229.23	3.294
229.44	3.296
229.66	3.290
229.87	3.190
230.08	3.359
230.30	3.351
230.51	3.130
230.73	3.189
230.94	3.115
231.15	3.570
231.37	3.793
231.58	4.151
231.80	4.094
232.01	3.914
232.22	4.137
232.44	4.460
232.65	4.076
232.86	4.596
233.08	4.242
233.29	3.482
233.51	2.916
233.72	3.028
233.93	2.772
234.15	3.176
234.36	3.188
234.57	3.159
234.79	3.244
235.00	3.307
235.21	3.406
235.43	3.858
235.64	4.394
235.86	4.937
236.07	4.575
236.28	5.301
236.50	5.508
236.71	5.931
236.92	6.221
237.14	5.551
237.35	5.888
237.56	5.900
237.78	5.863
237.99	6.143
238.20	5.499
238.42	5.680
238.63	5.113
238.84	4.808
239.06	4.486
239.27	3.686
239.48	4.351
239.70	3.747
239.91	3.852
240.13	3.766
240.34	3.391
240.55	3.210
240.77	3.206
240.98	3.153
241.19	3.379
241.41	3.173
241.62	3.357
241.83	3.398
242.05	3.521
242.26	3.387
242.47	3.227
242.69	3.260
242.90	3.351
243.11	3.123
243.33	2.993
243.54	2.921
243.75	3.264
243.97	3.215
244.18	2.948
244.39	2.963
244.61	2.985
244.82	3.194
245.03	3.063
245.24	2.910
245.46	3.397
245.67	3.681
245.88	3.714
246.10	3.446
246.31	3.329
246.52	3.398
246.74	3.298
246.95	3.299
247.16	3.292
247.38	3.253
247.59	3.305
247.80	3.256
248.02	3.251
248.23	3.191
248.44	3.164
248.66	3.173
248.87	3.157
249.08	3.225
249.29	3.212
249.51	3.464
249.72	3.615
249.93	3.721
250.15	3.838
250.36	4.089
250.57	4.127
250.79	4.544
251.00	4.934
251.21	4.917
251.42	4.562
251.64	4.656
251.85	4.367
252.06	4.270
252.28	4.075
252.49	4.062
252.70	4.045
252.91	4.050
253.13	3.944
253.34	3.689
253.55	3.587
253.77	3.960
253.98	3.703
254.19	3.966
254.40	3.937
254.62	4.143
254.83	4.146
255.04	4.108
255.26	3.787
255.47	3.824
255.68	4.174
255.89	4.191
256.11	3.469
256.32	3.681
256.53	3.272
256.75	3.455
256.96	3.367
257.17	3.303
257.38	3.370
257.60	3.683
257.81	3.876
258.02	3.759
258.23	3.708
258.45	4.119
258.66	3.632
258.87	3.466
259.09	3.293
259.30	3.223
259.51	3.225
259.72	3.145
259.94	3.098
260.15	2.973
260.36	3.000
260.57	2.975
260.79	2.907
261.00	3.029
261.21	3.064
261.42	3.103
261.64	3.188
261.85	3.263
262.06	3.375
262.27	3.436
262.49	3.579
262.70	3.418
262.91	3.559
263.12	3.542
263.34	3.490
263.55	3.430
263.76	3.450
263.97	3.458
264.19	3.305
264.40	3.244
264.61	3.353
264.82	3.395
265.04	3.455
265.25	3.232
265.46	3.169
265.67	3.142
265.88	2.894
266.10	2.775
266.31	2.865
266.52	2.880
266.73	2.860
266.95	2.836
267.16	2.851
267.37	2.801
267.58	2.735
267.80	2.760
268.01	2.715
268.22	2.892
268.43	2.903
268.64	2.674
268.86	2.676
269.07	2.705
269.28	2.493
269.49	2.432
269.71	2.600
269.92	2.760
270.13	2.829
270.34	2.870
270.55	2.998
270.77	3.145
270.98	3.219
271.19	3.317
271.40	3.372
271.61	3.580
271.83	3.451
272.04	3.386
272.25	3.280
272.46	3.243
272.68	3.252
272.89	3.129
273.10	3.037
273.31	3.116
273.52	3.115
273.74	3.033
273.95	2.973
274.16	2.966
274.37	2.989
274.58	3.028
274.80	3.003
275.01	2.969
275.22	3.074
275.43	3.152
275.64	2.973
275.86	2.732
276.07	2.754
276.28	2.805
276.49	2.903
276.70	2.867
276.91	2.934
277.13	2.857
277.34	2.859
277.55	3.064
277.76	2.970
277.97	2.981
278.19	3.105
278.40	3.188
278.61	3.151
278.82	3.108
279.03	3.129
279.24	3.240
279.46	3.374
279.67	3.264
279.88	2.878
280.09	3.027
280.30	3.102
280.52	3.129
280.73	3.077
280.94	2.937
281.15	2.888
281.36	2.766
281.57	2.470
281.79	2.431
282.00	2.727
282.21	2.789
282.42	2.612
282.63	2.449
282.84	2.407
283.06	2.402
283.27	2.440
283.48	2.508
283.69	2.538
283.90	2.691
284.11	2.600
284.32	2.400
284.54	2.438
284.75	2.610
284.96	2.722
285.17	2.637
285.38	2.591
285.59	2.664
285.81	2.636
286.02	2.762
286.23	2.719
286.44	2.765
286.65	2.711
286.86	2.753
287.07	2.700
287.29	2.769
287.50	2.871
287.71	2.860
287.92	2.841
288.13	2.950
288.34	2.778
288.55	2.864
288.77	2.776
288.98	2.884
289.19	2.852
289.40	2.855
289.61	2.926
289.82	2.983
290.03	2.891
290.24	2.954
290.46	2.939
290.67	2.962
290.88	2.934
291.09	3.231
291.30	3.247
291.51	3.283
291.72	3.259
291.93	3.119
292.15	3.076
292.36	3.148
292.57	3.099
292.78	3.148
292.99	3.108
293.20	3.004
293.41	2.824
293.62	2.829
293.84	2.871
294.05	2.963
294.26	2.965
294.47	2.973
294.68	3.026
294.89	3.145
295.10	3.035
295.31	3.197
295.52	3.328
295.73	3.359
295.95	3.352
296.16	3.355
296.37	3.301
296.58	3.333
296.79	3.304
297.00	3.401
297.21	3.266
297.42	3.347
297.63	3.307
297.84	3.410
298.06	3.351
298.27	3.460
298.48	3.505
298.69	3.517
298.90	3.568
299.11	3.660
299.32	3.558
299.53	3.677
299.74	3.738
299.95	3.797
300.16	3.719
300.38	3.815
300.59	3.689
300.80	3.650
301.01	3.571
301.22	3.628
301.43	3.641
301.64	3.664
301.85	3.651
302.06	3.570
302.27	3.481
302.48	3.393
302.69	3.435
302.91	3.471
303.12	3.399
303.33	3.594
303.54	3.561
303.75	3.630
303.96	3.708
304.17	3.808
304.38	3.807
304.59	4.045
304.80	4.166
305.01	4.125
305.22	4.278
305.43	4.431
305.64	4.421
305.85	4.459
306.06	4.441
306.28	4.555
306.49	4.463
306.70	4.557
306.91	4.471
307.12	4.451
307.33	4.447
307.54	4.274
307.75	4.155
307.96	4.137
308.17	4.178
308.38	4.247
308.59	4.288
308.80	4.353
309.01	4.425
309.22	4.468
309.43	4.388
309.64	4.385
309.85	4.475
310.06	4.539
310.27	4.550
310.48	4.476
310.70	4.380
310.91	4.341
311.12	4.333
311.33	4.272
311.54	4.219
311.75	4.312
311.96	4.353
312.17	4.314
312.38	4.330
312.59	4.384
312.80	4.376
313.01	4.390
313.22	4.439
313.43	4.518
313.64	4.570
313.85	4.532
314.06	4.518
314.27	4.627
314.48	4.642
314.69	4.672
314.90	4.666
315.11	4.817
315.32	4.856
315.53	4.837
315.74	4.802
315.95	4.738
316.16	4.819
316.37	4.896
316.58	4.919
316.79	4.957
317.00	5.042
317.21	5.111
317.42	5.148
317.63	5.196
317.84	5.163
318.05	5.232
318.26	5.248
318.47	5.241
318.68	5.181
318.89	5.093
319.10	5.071
319.31	5.020
319.52	4.959
319.73	4.966
319.94	4.973
320.15	5.014
320.36	4.980
320.57	5.110
320.78	5.300
320.99	5.334
321.20	5.400
321.41	5.429
321.62	5.498
321.83	5.537
322.04	5.540
322.25	5.552
322.46	5.596
322.67	5.673
322.88	5.619
323.09	5.544
323.30	5.635
323.51	5.628
323.72	5.715
323.93	5.724
324.14	5.737
324.35	5.661
324.56	5.670
324.77	5.666
324.98	5.636
325.19	5.705
325.40	5.664
325.61	5.662
325.82	5.705
326.03	5.678
326.24	5.605
326.45	5.627
326.65	5.717
326.86	5.743
327.07	5.802
327.28	5.899
327.49	5.875
327.70	5.946
327.91	5.823
328.12	5.809
328.33	5.891
328.54	6.010
328.75	6.034
328.96	6.055
329.17	6.103
329.38	6.096
329.59	6.085
329.80	6.155
330.01	6.153
330.22	6.296
330.43	6.388
330.64	6.374
330.85	6.343
331.05	6.318
331.26	6.370
331.47	6.366
331.68	6.330
331.89	6.316
332.10	6.308
332.31	6.349
332.52	6.321
332.73	6.312
332.94	6.384
333.15	6.347
333.36	6.349
333.57	6.406
333.78	6.480
333.99	6.543
334.19	6.592
334.40	6.610
334.61	6.605
334.82	6.655
335.03	6.632
335.24	6.660
335.45	6.704
335.66	6.765
335.87	6.720
336.08	6.776
336.29	6.807
336.50	6.732
336.71	6.731
336.91	6.828
337.12	6.887
337.33	6.913
337.54	6.828
337.75	6.867
337.96	6.928
338.17	6.941
338.38	6.855
338.59	6.844
338.80	6.923
339.01	6.924
339.21	6.829
339.42	6.716
339.63	6.697
339.84	6.656
340.05	6.695
340.26	6.690
340.47	6.715
340.68	6.757
340.89	6.806
341.10	6.842
341.30	6.882
341.51	6.925
341.72	7.022
341.93	7.061
342.14	7.163
342.35	7.104
342.56	7.115
342.77	7.071
342.98	7.058
343.18	7.041
343.39	7.035
343.60	7.028
343.81	7.005
344.02	6.983
344.23	6.946
344.44	6.896
344.65	6.915
344.85	6.959
345.06	6.985
345.27	7.039
345.48	7.025
345.69	6.946
345.90	6.949
346.11	6.958
346.32	6.950
346.52	7.038
346.73	7.088
346.94	7.230
347.15	7.181
347.36	7.192
347.57	7.182
347.78	7.199
347.98	7.249
348.19	7.336
348.40	7.417
348.61	7.477
348.82	7.489
349.03	7.514
349.24	7.431
349.44	7.492
349.65	7.508
349.86	7.516
350.07	7.585
350.28	7.620
350.49	7.614
350.70	7.541
350.90	7.518
351.11	7.453
351.32	7.491
351.53	7.530
351.74	7.498
351.95	7.547
352.15	7.556
352.36	7.498
352.57	7.533
352.78	7.518
352.99	7.585
353.20	7.643
353.40	7.730
353.61	7.723
353.82	7.730
354.03	7.821
354.24	7.806
354.45	7.820
354.65	7.900
354.86	7.899
355.07	7.923
355.28	7.930
355.49	7.960
355.70	7.983
355.90	7.924
356.11	7.922
356.32	7.862
356.53	7.912
356.74	7.973
356.94	7.982
357.15	8.013
357.36	8.009
357.57	8.025
357.78	8.046
357.99	8.048
358.19	8.152
358.40	8.131
358.61	8.159
358.82	8.156
359.03	8.092
359.23	8.077
359.44	8.145
359.65	8.186
359.86	8.201
360.07	8.153
360.27	8.141
360.48	8.146
360.69	8.172
360.90	8.180
361.11	8.186
361.31	8.251
361.52	8.300
361.73	8.276
361.94	8.263
362.15	8.285
362.35	8.396
362.56	8.442
362.77	8.475
362.98	8.530
363.18	8.547
363.39	8.601
363.60	8.607
363.81	8.591
364.02	8.600
364.22	8.665
364.43	8.705
364.64	8.624
364.85	8.643
365.05	8.608
365.26	8.613
365.47	8.642
365.68	8.651
365.89	8.698
366.09	8.703
366.30	8.758
366.51	8.736
366.72	8.736
366.92	8.820
367.13	8.857
367.34	8.926
367.55	8.908
367.75	8.932
367.96	8.949
368.17	8.974
368.38	9.015
368.58	8.986
368.79	9.015
369.00	9.047
369.21	9.047
369.41	9.045
369.62	9.009
369.83	9.080
370.04	9.137
370.24	9.117
370.45	9.094
370.66	9.122
370.87	9.153
371.07	9.190
371.28	9.166
371.49	9.163
371.70	9.130
371.90	9.217
372.11	9.222
372.32	9.219
372.53	9.246
372.73	9.287
372.94	9.302
373.15	9.326
373.36	9.322
373.56	9.386
373.77	9.425
373.98	9.516
374.19	9.462
374.39	9.481
374.60	9.502
374.81	9.531
375.01	9.532
375.22	9.583
375.43	9.625
375.64	9.700
375.84	9.715
376.05	9.773
376.26	9.768
376.46	9.839
376.67	9.812
376.88	9.815
377.09	9.830
377.29	9.861
377.50	9.858
377.71	9.865
377.91	9.850
378.12	9.872
378.33	9.828
378.54	9.867
378.74	9.861
378.95	9.934
379.16	9.934
379.36	9.954
379.57	9.965
379.78	9.980
379.99	10.002
380.19	10.008
380.40	10.020
380.61	10.057
380.81	10.049
381.02	10.087
381.23	10.132
381.43	10.154
381.64	10.191
381.85	10.227
382.05	10.261
382.26	10.278
382.47	10.288
382.67	10.305
382.88	10.325
383.09	10.353
383.30	10.352
383.50	10.332
383.71	10.416
383.92	10.453
384.12	10.471
384.33	10.451
384.54	10.469
384.74	10.533
384.95	10.552
385.16	10.575
385.36	10.581
385.57	10.596
385.78	10.631
385.98	10.620
386.19	10.617
386.40	10.642
386.60	10.690
386.81	10.716
387.02	10.709
387.22	10.741
387.43	10.761
387.64	10.797
387.84	10.851
388.05	10.898
388.26	10.908
388.46	10.917
388.67	10.915
388.88	10.923
389.08	10.944
389.29	10.973
389.49	11.003
389.70	11.027
389.91	11.046
390.11	11.051
390.32	11.037
390.53	11.058
390.73	11.071
390.94	11.100
391.15	11.117
391.35	11.139
391.56	11.144
391.77	11.130
391.97	11.146
392.18	11.165
392.38	11.173
392.59	11.205
392.80	11.212
393.00	11.246
393.21	11.304
393.42	11.325
393.62	11.327
393.83	11.341
394.04	11.364
394.24	11.382
394.45	11.409
394.65	11.445
394.86	11.442
395.07	11.491
395.27	11.503
395.48	11.492
395.68	11.522
395.89	11.563
396.10	11.594
396.30	11.630
396.51	11.645
396.72	11.640
396.92	11.644
397.13	11.681
397.33	11.696
397.54	11.753
397.75	11.777
397.95	11.809
398.16	11.785
398.36	11.802
398.57	11.838
398.78	11.864
398.98	11.893
399.19	11.937
399.39	11.952
399.60	11.968
399.81	11.943
400.01	11.951
400.22	11.965
400.42	12.028
400.63	12.062
400.84	12.079
401.04	12.104
401.25	12.128
401.45	12.127
401.66	12.166
401.86	12.184
402.07	12.217
402.28	12.250
402.48	12.271
402.69	12.277
402.89	12.295
403.10	12.294
403.31	12.306
403.51	12.335
403.72	12.359
403.92	12.380
404.13	12.393
404.33	12.433
404.54	12.398
404.75	12.392
404.95	12.411
405.16	12.441
405.36	12.471
405.57	12.514
405.77	12.546
405.98	12.576
406.18	12.571
406.39	12.577
406.60	12.582
406.80	12.635
407.01	12.665
407.21	12.703
407.42	12.713
407.62	12.716
407.83	12.732
408.03	12.764
408.24	12.777
408.45	12.815
408.65	12.871
408.86	12.885
409.06	12.890
409.27	12.925
409.47	12.926
409.68	12.968
409.88	12.994
410.09	12.977
410.29	12.979
410.50	13.013
410.71	13.020
410.91	13.020
411.12	13.068
411.32	13.130
411.53	13.134
411.73	13.171
411.94	13.164
412.14	13.207
412.35	13.258
412.55	13.260
412.76	13.252
412.96	13.283
413.17	13.286
413.37	13.258
413.58	13.263
413.78	13.291
413.99	13.300
414.19	13.299
414.40	13.303
414.61	13.324
414.81	13.338
415.02	13.329
415.22	13.336
415.43	13.356
415.63	13.368
415.84	13.399
416.04	13.411
416.25	13.424
416.45	13.437
416.66	13.460
416.86	13.453
417.07	13.453
417.27	13.476
417.48	13.469
417.68	13.477
417.89	13.507
418.09	13.498
418.30	13.520
418.50	13.517
418.71	13.554
418.91	13.564
419.12	13.598
419.32	13.631
419.53	13.641
419.73	13.654
419.94	13.648
420.14	13.646
420.34	13.638
420.55	13.634
420.75	13.662
420.96	13.682
421.16	13.687
421.37	13.669
421.57	13.700
421.78	13.744
421.98	13.787
422.19	13.819
422.39	13.867
422.60	13.895
422.80	13.932
423.01	13.929
423.21	13.915
423.42	13.941
423.62	13.934
423.83	13.920
424.03	13.925
424.23	13.928
424.44	13.961
424.64	13.977
424.85	14.024
425.05	14.056
425.26	14.094
425.46	14.136
425.67	14.169
425.87	14.253
426.08	14.320
426.28	14.375
426.48	14.407
426.69	14.439
426.89	14.462
427.10	14.482
427.30	14.507
427.51	14.549
427.71	14.579
427.92	14.575
428.12	14.588
428.32	14.586
428.53	14.564
428.73	14.592
428.94	14.639
429.14	14.646
429.35	14.659
429.55	14.682
429.76	14.688
429.96	14.678
430.16	14.726
430.37	14.752
430.57	14.759
430.78	14.770
430.98	14.772
431.19	14.774
431.39	14.781
431.59	14.785
431.80	14.745
432.00	14.735
432.21	14.737
432.41	14.696
432.61	14.683
432.82	14.699
433.02	14.725
433.23	14.754
433.43	14.752
433.64	14.789
433.84	14.810
434.04	14.870
434.25	14.933
434.45	14.985
434.66	15.072
434.86	15.139
435.06	15.183
435.27	15.228
435.47	15.264
435.68	15.302
435.88	15.319
436.08	15.331
436.29	15.313
436.49	15.290
436.70	15.291
436.90	15.258
437.10	15.253
437.31	15.277
437.51	15.269
437.71	15.248
437.92	15.223
438.12	15.204
438.33	15.201
438.53	15.216
438.73	15.220
438.94	15.214
439.14	15.246
439.35	15.269
439.55	15.261
439.75	15.271
439.96	15.299
440.16	15.318
440.36	15.318
440.57	15.349
440.77	15.378
440.97	15.427
441.18	15.456
441.38	15.487
441.59	15.482
441.79	15.517
441.99	15.536
442.20	15.558
442.40	15.613
442.60	15.668
442.81	15.679
443.01	15.676
443.21	15.650
443.42	15.673
443.62	15.644
443.83	15.642
444.03	15.630
444.23	15.628
444.44	15.618
444.64	15.583
444.84	15.576
445.05	15.568
445.25	15.561
445.45	15.549
445.66	15.540
445.86	15.551
446.06	15.562
446.27	15.586
446.47	15.614
446.67	15.643
446.88	15.694
447.08	15.733
447.28	15.773
447.49	15.818
447.69	15.893
447.89	15.943
448.10	15.987
448.30	16.034
448.50	16.057
448.71	16.101
448.91	16.111
449.11	16.135
449.32	16.149
449.52	16.193
449.72	16.211
449.93	16.221
450.13	16.248
450.33	16.292
450.53	16.343
450.74	16.364
450.94	16.346
451.14	16.383
451.35	16.365
451.55	16.363
451.75	16.342
451.96	16.326
452.16	16.304
452.36	16.312
452.57	16.287
452.77	16.284
452.97	16.295
453.17	16.305
453.38	16.315
453.58	16.345
453.78	16.383
453.99	16.396
454.19	16.438
454.39	16.472
454.59	16.490
454.80	16.537
455.00	16.545
455.20	16.582
455.41	16.620
455.61	16.649
455.81	16.670
456.01	16.683
456.22	16.713
456.42	16.733
456.62	16.757
456.83	16.773
457.03	16.779
457.23	16.788
457.43	16.749
457.64	16.726
457.84	16.698
458.04	16.687
458.25	16.658
458.45	16.641
458.65	16.605
458.85	16.582
459.06	16.530
459.26	16.525
459.46	16.528
459.66	16.555
459.87	16.610
460.07	16.647
460.27	16.674
460.47	16.734
460.68	16.783
460.88	16.861
461.08	16.913
461.28	17.014
461.49	17.053
461.69	17.125
461.89	17.160
462.09	17.174
462.30	17.186
462.50	17.230
462.70	17.218
462.90	17.238
463.11	17.228
463.31	17.254
463.51	17.244
463.71	17.265
463.92	17.235
464.12	17.244
464.32	17.260
464.52	17.269
464.72	17.263
464.93	17.287
465.13	17.285
465.33	17.285
465.53	17.276
465.74	17.286
465.94	17.267
466.14	17.278
466.34	17.267
466.54	17.253
466.75	17.282
466.95	17.290
467.15	17.301
467.35	17.307
467.56	17.323
467.76	17.346
467.96	17.367
468.16	17.402
468.36	17.428
468.57	17.461
468.77	17.497
468.97	17.500
469.17	17.512
469.37	17.504
469.58	17.529
469.78	17.542
469.98	17.562
470.18	17.579
470.38	17.606
470.59	17.628
470.79	17.648
470.99	17.672
471.19	17.695
471.39	17.731
471.60	17.757
471.80	17.739
472.00	17.718
472.20	17.711
472.40	17.697
472.61	17.691
472.81	17.697
473.01	17.709
473.21	17.712
473.41	17.726
473.61	17.732
473.82	17.742
474.02	17.790
474.22	17.867
474.42	17.885
474.62	17.923
474.82	17.941
475.03	17.972
475.23	17.985
475.43	17.995
475.63	17.982
475.83	17.974
476.03	17.981
476.24	17.974
476.44	17.940
476.64	17.958
476.84	17.961
477.04	17.982
477.24	17.971
477.45	17.978
477.65	17.972
477.85	17.981
478.05	17.980
478.25	17.995
478.45	18.031
478.65	18.065
478.86	18.070
479.06	18.082
479.26	18.093
479.46	18.120
479.66	18.121
479.86	18.152
480.06	18.154
480.27	18.172
480.47	18.178
480.67	18.147
480.87	18.132
481.07	18.140
481.27	18.131
481.47	18.119
481.68	18.110
481.88	18.119
482.08	18.083
482.28	18.056
482.48	18.013
482.68	17.941
482.88	17.939
483.08	18.135
483.29	18.403
483.49	18.594
483.69	18.554
483.89	18.492
484.09	18.514
484.29	18.561
484.49	18.633
484.69	18.713
484.89	18.825
485.10	18.932
485.30	18.899
485.50	18.734
485.70	18.571
485.90	18.629
486.10	18.719
486.30	18.677
486.50	18.601
486.70	18.495
486.90	18.401
487.11	18.341
487.31	18.288
487.51	18.255
487.71	18.251
487.91	18.264
488.11	18.309
488.31	18.356
488.51	18.421
488.71	18.496
488.91	18.568
489.11	18.656
489.32	18.726
489.52	18.807
489.72	18.875
489.92	18.923
490.12	18.926
490.32	18.861
490.52	18.785
490.72	18.688
490.92	18.586
491.12	18.523
491.32	18.469
491.52	18.458
491.72	18.476
491.92	18.504
492.13	18.543
492.33	18.583
492.53	18.659
492.73	18.757
492.93	18.866
493.13	18.984
493.33	19.092
493.53	19.203
493.73	19.268
493.93	19.286
494.13	19.296
494.33	19.275
494.53	19.274
494.73	19.248
494.93	19.219
495.13	19.187
495.33	19.155
495.53	19.110
495.73	19.076
495.94	19.064
496.14	19.047
496.34	19.037
496.54	19.045
496.74	19.042
496.94	19.048
497.14	19.047
497.34	19.056
497.54	19.067
497.74	19.109
497.94	19.143
498.14	19.149
498.34	19.199
498.54	19.236
498.74	19.255
498.94	19.294
499.14	19.311
499.34	19.331
499.54	19.358
499.74	19.384
499.94	19.382
500.14	19.395
500.34	19.424
500.54	19.418
500.74	19.408
500.94	19.427
501.14	19.434
501.34	19.446
501.54	19.468
501.74	19.476
501.94	19.481
502.14	19.508
502.34	19.519
502.54	19.531
502.74	19.542
502.94	19.552
503.14	19.541
503.34	19.503
503.54	19.493
503.74	19.466
503.94	19.458
504.14	19.459
504.34	19.488
504.54	19.507
504.74	19.528
504.94	19.533
505.14	19.550
505.34	19.577
505.54	19.619
505.74	19.644
505.94	19.684
506.14	19.713
506.34	19.735
506.54	19.712
506.74	19.703
506.94	19.703
507.14	19.714
507.34	19.705
507.54	19.695
507.74	19.688
507.94	19.676
508.14	19.670
508.34	19.652
508.54	19.660
508.74	19.678
508.94	19.698
509.13	19.723
509.33	19.735
509.53	19.760
509.73	19.780
509.93	19.818
510.13	19.853
510.33	19.873
510.53	19.895
510.73	19.926
510.93	19.910
511.13	19.911
511.33	19.894
511.53	19.906
511.73	19.912
511.93	19.921
512.13	19.927
512.33	19.949
512.53	19.967
512.73	19.989
512.92	20.000
513.12	20.044
513.32	20.072
513.52	20.098
513.72	20.123
513.92	20.132
514.12	20.164
514.32	20.178
514.52	20.164
514.72	20.172
514.92	20.178
515.12	20.172
515.32	20.183
515.52	20.186
515.71	20.189
515.91	20.183
516.11	20.185
516.31	20.164
516.51	20.141
516.71	20.141
516.91	20.123
517.11	20.112
517.31	20.075
517.51	20.028
517.71	19.986
517.90	19.975
518.10	19.954
518.30	19.970
518.50	19.976
518.70	19.999
518.90	20.028
519.10	20.050
519.30	20.071
519.50	20.124
519.69	20.176
519.89	20.249
520.09	20.312
520.29	20.373
520.49	20.415
520.69	20.459
520.89	20.491
521.09	20.511
521.29	20.533
521.48	20.557
521.68	20.563
521.88	20.552
522.08	20.564
522.28	20.559
522.48	20.550
522.68	20.545
522.88	20.534
523.07	20.537
523.27	20.533
523.47	20.538
523.67	20.543
523.87	20.550
524.07	20.563
524.27	20.527
524.47	20.489
524.66	20.479
524.86	20.444
525.06	20.432
525.26	20.415
525.46	20.414
525.66	20.418
525.85	20.432
526.05	20.449
526.25	20.479
526.45	20.517
526.65	20.557
526.85	20.582
527.05	20.593
527.24	20.567
527.44	20.506
527.64	20.429
527.84	20.377
528.04	20.342
528.24	20.329
528.43	20.335
528.63	20.343
528.83	20.377
529.03	20.413
529.23	20.463
529.43	20.536
529.62	20.627
529.82	20.734
530.02	20.843
530.22	20.950
530.42	21.042
530.62	21.115
530.81	21.175
531.01	21.184
531.21	21.198
531.41	21.181
531.61	21.125
531.80	21.061
532.00	20.980
532.20	20.880
532.40	20.792
532.60	20.708
532.79	20.638
532.99	20.610
533.19	20.599
533.39	20.596
533.59	20.630
533.78	20.667
533.98	20.720
534.18	20.784
534.38	20.880
534.58	20.964
534.77	21.071
534.97	21.173
535.17	21.234
535.37	21.267
535.57	21.255
535.76	21.173
535.96	21.119
536.16	21.046
536.36	20.989
536.56	20.929
536.75	20.913
536.95	20.922
537.15	20.942
537.35	20.958
537.54	21.014
537.74	21.074
537.94	21.180
538.14	21.268
538.34	21.348
538.53	21.433
538.73	21.483
538.93	21.512
539.13	21.500
539.32	21.484
539.52	21.489
539.72	21.435
539.92	21.355
540.11	21.235
540.31	21.110
540.51	20.996
540.71	20.887
540.90	20.837
541.10	20.801
541.30	20.799
541.50	20.815
541.69	20.851
541.89	20.886
542.09	20.935
542.29	21.010
542.48	21.105
542.68	21.200
542.88	21.306
543.08	21.404
543.27	21.490
543.47	21.558
543.67	21.602
543.87	21.598
544.06	21.597
544.26	21.598
544.46	21.584
544.65	21.557
544.85	21.561
545.05	21.560
545.25	21.552
545.44	21.535
545.64	21.499
545.84	21.448
546.04	21.424
546.23	21.395
546.43	21.373
546.63	21.360
546.82	21.380
547.02	21.387
547.22	21.400
547.42	21.431
547.61	21.477
547.81	21.529
548.01	21.585
548.20	21.632
548.40	21.694
548.60	21.756
548.79	21.806
548.99	21.811
549.19	21.840
549.39	21.848
549.58	21.836
549.78	21.812
549.98	21.804
550.17	21.807
550.37	21.813
550.57	21.808
550.76	21.805
550.96	21.793
551.16	21.796
551.35	21.750
551.55	21.745
551.75	21.721
551.94	21.701
552.14	21.674
552.34	21.658
552.53	21.634
552.73	21.638
552.93	21.648
553.13	21.675
553.32	21.691
553.52	21.753
553.72	21.781
553.91	21.831
554.11	21.872
554.31	21.912
554.50	21.952
554.70	22.002
554.89	22.012
555.09	22.038
555.29	22.043
555.48	22.041
555.68	22.038
555.88	22.048
556.07	22.034
556.27	22.036
556.47	22.052
556.66	22.055
556.86	22.022
557.06	22.041
557.25	22.019
557.45	22.036
557.65	22.057
557.84	22.061
558.04	22.069
558.23	22.089
558.43	22.098
558.63	22.092
558.82	22.098
559.02	22.139
559.22	22.141
559.41	22.159
559.61	22.156
559.81	22.148
560.00	22.142
560.20	22.128
560.39	22.113
560.59	22.096
560.79	22.101
560.98	22.115
561.18	22.106
561.37	22.119
561.57	22.129
561.77	22.116
561.96	22.130
562.16	22.147
562.36	22.155
562.55	22.164
562.75	22.191
562.94	22.204
563.14	22.218
563.34	22.239
563.53	22.245
563.73	22.242
563.92	22.273
564.12	22.276
564.32	22.265
564.51	22.269
564.71	22.253
564.90	22.240
565.10	22.227
565.29	22.205
565.49	22.173
565.69	22.144
565.88	22.118
566.08	22.105
566.27	22.110
566.47	22.122
566.67	22.147
566.86	22.184
567.06	22.223
567.25	22.247
567.45	22.270
567.64	22.324
567.84	22.371
568.04	22.414
568.23	22.429
568.43	22.459
568.62	22.465
568.82	22.461
569.01	22.459
569.21	22.446
569.41	22.459
569.60	22.481
569.80	22.462
569.99	22.447
570.19	22.428
570.38	22.417
570.58	22.389
570.77	22.378
570.97	22.361
571.17	22.339
571.36	22.331
571.56	22.320
571.75	22.293
571.95	22.293
572.14	22.310
572.34	22.330
572.53	22.356
572.73	22.381
572.92	22.420
573.12	22.459
573.31	22.501
573.51	22.532
573.70	22.566
573.90	22.568
574.10	22.572
574.29	22.576
574.49	22.571
574.68	22.561
574.88	22.556
575.07	22.566
575.27	22.568
575.46	22.580
575.66	22.581
575.85	22.564
576.05	22.627
576.24	22.645
576.44	22.668
576.63	22.700
576.83	22.740
577.02	22.756
577.22	22.739
577.41	22.755
577.61	22.767
577.80	22.769
578.00	22.786
578.19	22.765
578.39	22.791
578.58	22.796
578.78	22.806
578.97	22.785
579.17	22.785
579.36	22.810
579.56	22.804
579.75	22.787
579.95	22.800
580.14	22.822
580.34	22.814
580.53	22.813
580.73	22.811
580.92	22.831
581.12	22.851
581.31	22.878
581.51	22.889
581.70	22.893
581.89	22.931
582.09	22.940
582.28	22.921
582.48	22.916
582.67	22.930
582.87	22.959
583.06	22.951
583.26	22.961
583.45	22.956
583.65	22.951
583.84	22.951
584.04	22.940
584.23	22.931
584.43	22.959
584.62	22.974
584.81	22.971
585.01	22.965
585.20	22.986
585.40	23.001
585.59	22.998
585.79	23.007
585.98	23.012
586.18	23.013
586.37	23.035
586.56	23.030
586.76	23.042
586.95	23.051
587.15	23.048
587.34	23.021
587.54	23.010
587.73	23.009
587.92	23.028
588.12	23.041
588.31	23.057
588.51	23.056
588.70	23.041
588.90	23.040
589.09	23.034
589.28	23.029
589.48	23.041
589.67	23.072
589.87	23.077
590.06	23.058
590.25	23.081
590.45	23.083
590.64	23.098
590.84	23.123
591.03	23.141
591.23	23.140
591.42	23.162
591.61	23.198
591.81	23.196
592.00	23.212
592.20	23.228
592.39	23.200
592.58	23.183
592.78	23.185
592.97	23.175
593.17	23.156
593.36	23.162
593.55	23.147
593.75	23.129
593.94	23.101
594.13	23.093
594.33	23.102
594.52	23.118
594.72	23.128
594.91	23.128
595.10	23.155
595.30	23.184
595.49	23.196
595.68	23.195
595.88	23.181
596.07	23.157
596.27	23.133
596.46	23.069
596.65	23.030
596.85	23.023
597.04	23.016
597.23	23.018
597.43	23.030
597.62	23.040
597.81	23.081
598.01	23.127
598.20	23.195
598.40	23.270
598.59	23.349
598.78	23.412
598.98	23.457
599.17	23.495
599.36	23.535
599.56	23.529
599.75	23.544
599.94	23.549
600.14	23.511
600.33	23.497
600.52	23.460
600.72	23.456
600.91	23.443
601.10	23.431
601.30	23.427
601.49	23.406
601.68	23.403
601.88	23.394
602.07	23.356
602.26	23.352
602.46	23.315
602.65	23.303
602.84	23.305
603.04	23.272
603.23	23.245
603.42	23.226
603.62	23.192
603.81	23.154
604.00	23.129
604.20	23.119
604.39	23.108
604.58	23.140
604.77	23.132
604.97	23.155
605.16	23.204
605.35	23.256
605.55	23.294
605.74	23.354
605.93	23.433
606.13	23.501
606.32	23.575
606.51	23.663
606.70	23.681
606.90	23.741
607.09	23.765
607.28	23.760
607.48	23.747
607.67	23.737
607.86	23.697
608.05	23.664
608.25	23.594
608.44	23.528
608.63	23.443
608.83	23.406
609.02	23.351
609.21	23.293
609.40	23.301
609.60	23.305
609.79	23.306
609.98	23.332
610.17	23.355
610.37	23.413
610.56	23.459
610.75	23.527
610.95	23.575
611.14	23.663
611.33	23.738
611.52	23.767
611.72	23.774
611.91	23.804
612.10	23.813
612.29	23.842
612.49	23.834
612.68	23.848
612.87	23.836
613.06	23.839
613.26	23.817
613.45	23.811
613.64	23.797
613.83	23.800
614.03	23.777
614.22	23.798
614.41	23.785
614.60	23.779
614.79	23.763
614.99	23.764
615.18	23.784
615.37	23.798
615.56	23.764
615.76	23.763
615.95	23.792
616.14	23.814
616.33	23.799
616.53	23.771
616.72	23.794
616.91	23.808
617.10	23.822
617.29	23.816
617.49	23.790
617.68	23.821
617.87	23.854
618.06	23.860
618.25	23.846
618.45	23.839
618.64	23.859
618.83	23.836
619.02	23.831
619.21	23.807
619.41	23.809
619.60	23.828
619.79	23.830
619.98	23.817
620.17	23.800
620.37	23.801
620.56	23.823
620.75	23.818
620.94	23.842
621.13	23.833
621.33	23.837
621.52	23.840
621.71	23.848
621.90	23.839
622.09	23.864
622.28	23.881
622.48	23.925
622.67	23.910
622.86	23.910
623.05	23.933
623.24	23.960
623.44	23.996
623.63	23.997
623.82	23.998
624.01	24.032
624.20	24.032
624.39	24.019
624.59	23.996
624.78	23.991
624.97	24.032
625.16	23.983
625.35	23.954
625.54	23.946
625.73	23.937
625.93	23.935
626.12	23.895
626.31	23.844
626.50	23.837
626.69	23.824
626.88	23.837
627.07	23.817
627.27	23.843
627.46	23.854
627.65	23.886
627.84	23.913
628.03	23.936
628.22	23.982
628.41	24.039
628.61	24.065
628.80	24.101
628.99	24.121
629.18	24.130
629.37	24.138
629.56	24.188
629.75	24.181
629.94	24.194
630.14	24.203
630.33	24.193
630.52	24.194
630.71	24.219
630.90	24.222
631.09	24.235
631.28	24.247
631.47	24.274
631.66	24.258
631.86	24.286
632.05	24.271
632.24	24.248
632.43	24.255
632.62	24.240
632.81	24.202
633.00	24.190
633.19	24.152
633.38	24.132
633.57	24.101
633.77	24.092
633.96	24.066
634.15	24.054
634.34	24.068
634.53	24.084
634.72	24.102
634.91	24.141
635.10	24.158
635.29	24.209
635.48	24.238
635.67	24.253
635.86	24.255
636.05	24.238
636.25	24.242
636.44	24.257
636.63	24.242
636.82	24.241
637.01	24.216
637.20	24.225
637.39	24.213
637.58	24.216
637.77	24.244
637.96	24.242
638.15	24.289
638.34	24.326
638.53	24.310
638.72	24.326
638.91	24.311
639.10	24.335
639.30	24.330
639.49	24.315
639.68	24.347
639.87	24.333
640.06	24.375
640.25	24.350
640.44	24.337
640.63	24.411
640.82	24.390
641.01	24.405
641.20	24.406
641.39	24.422
641.58	24.403
641.77	24.379
641.96	24.398
642.15	24.389
642.34	24.391
642.53	24.391
642.72	24.328
642.91	24.325
643.10	24.359
643.29	24.390
643.48	24.386
643.67	24.433
643.86	24.447
644.05	24.448
644.24	24.450
644.43	24.454
644.62	24.474
644.81	24.487
645.00	24.516
645.19	24.500
645.38	24.484
645.57	24.480
645.76	24.462
645.95	24.431
646.14	24.361
646.33	24.346
646.52	24.353
646.71	24.349
646.90	24.333
647.09	24.339
647.28	24.362
647.47	24.359
647.66	24.382
647.85	24.397
648.04	24.443
648.23	24.508
648.42	24.533
648.61	24.549
648.80	24.550
648.99	24.559
649.18	24.558
649.37	24.566
649.56	24.574
649.75	24.566
649.94	24.562
650.13	24.519
650.32	24.544
650.51	24.516
650.70	24.491
650.89	24.489
651.08	24.519
651.27	24.526
651.46	24.485
651.65	24.492
651.83	24.505
652.02	24.503
652.21	24.541
652.40	24.546
652.59	24.602
652.78	24.668
652.97	24.669
653.16	24.671
653.35	24.650
653.54	24.701
653.73	24.687
653.92	24.673
654.11	24.694
654.30	24.709
654.49	24.703
654.68	24.670
654.86	24.621
655.05	24.628
655.24	24.623
655.43	24.658
655.62	24.642
655.81	24.657
656.00	24.689
656.19	24.662
656.38	24.635
656.57	24.619
656.76	24.623
656.95	24.632
657.13	24.629
657.32	24.617
657.51	24.587
657.70	24.563
657.89	24.536
658.08	24.485
658.27	24.457
658.46	24.400
658.65	24.374
658.84	24.325
659.02	24.318
659.21	24.341
659.40	24.345
659.59	24.366
659.78	24.401
659.97	24.414
660.16	24.448
660.35	24.525
660.54	24.609
660.72	24.642
660.91	24.732
661.10	24.797
661.29	24.800
661.48	24.809
661.67	24.830
661.86	24.855
662.05	24.876
662.23	24.868
662.42	24.845
662.61	24.844
662.80	24.872
662.99	24.842
663.18	24.804
663.37	24.804
663.56	24.819
663.74	24.831
663.93	24.826
664.12	24.849
664.31	24.857
664.50	24.868
664.69	24.847
664.87	24.792
665.06	24.816
665.25	24.824
665.44	24.825
665.63	24.840
665.82	24.860
666.01	24.865
666.19	24.862
666.38	24.884
666.57	24.903
666.76	24.917
666.95	24.963
667.14	24.962
667.32	24.931
667.51	24.918
667.70	24.890
667.89	24.852
668.08	24.837
668.26	24.833
668.45	24.821
668.64	24.794
668.83	24.762
669.02	24.776
669.21	24.797
669.39	24.862
669.58	24.893
669.77	24.923
669.96	24.922
670.15	24.945
670.33	24.987
670.52	24.982
670.71	24.975
670.90	25.025
671.09	25.034
671.27	25.041
671.46	25.019
671.65	25.016
671.84	25.011
672.03	25.044
672.21	25.011
672.40	25.011
672.59	25.034
672.78	25.062
672.96	25.053
673.15	25.056
673.34	25.032
673.53	25.040
673.72	25.044
673.90	25.073
674.09	25.094
674.28	25.084
674.47	25.032
674.65	25.021
674.84	25.030
675.03	25.028
675.22	25.020
675.41	25.020
675.59	25.013
675.78	25.026
675.97	25.012
676.16	24.965
676.34	24.974
676.53	25.033
676.72	25.009
676.91	25.016
677.09	25.018
677.28	25.012
677.47	24.990
677.66	25.017
677.84	25.020
678.03	25.010
678.22	25.006
678.41	25.006
678.59	24.953
678.78	24.989
678.97	24.981
679.15	24.975
679.34	24.939
679.53	24.975
679.72	24.922
679.90	24.923
680.09	24.922
680.28	24.932
680.47	24.957
680.65	24.988
680.84	24.984
681.03	24.985
681.21	25.013
681.40	25.075
681.59	25.060
681.78	25.098
681.96	25.080
682.15	25.098
682.34	25.106
682.52	25.126
682.71	25.122
682.90	25.125
683.08	25.122
683.27	25.110
683.46	25.135
683.65	25.147
683.83	25.164
684.02	25.211
684.21	25.211
684.39	25.212
684.58	25.182
684.77	25.186
684.95	25.205
685.14	25.259
685.33	25.270
685.51	25.253
685.70	25.281
685.89	25.255
686.07	25.264
686.26	25.311
686.45	25.326
686.63	25.337
686.82	25.351
687.01	25.302
687.20	25.250
687.38	25.236
687.57	25.206
687.75	25.175
687.94	25.180
688.13	25.161
688.31	25.138
688.50	25.143
688.69	25.184
688.87	25.155
689.06	25.238
689.25	25.261
689.43	25.284
689.62	25.298
689.81	25.336
689.99	25.350
690.18	25.355
690.37	25.350
690.55	25.368
690.74	25.358
690.93	25.396
691.11	25.378
691.30	25.400
691.48	25.384
691.67	25.429
691.86	25.382
692.04	25.404
692.23	25.426
692.42	25.459
692.60	25.464
692.79	25.451
692.97	25.480
693.16	25.462
693.35	25.454
693.53	25.462
693.72	25.434
693.90	25.466
694.09	25.460
694.28	25.447
694.46	25.435
694.65	25.378
694.83	25.389
695.02	25.351
695.21	25.335
695.39	25.328
695.58	25.337
695.76	25.342
695.95	25.345
696.14	25.366
696.32	25.340
696.51	25.347
696.69	25.420
696.88	25.360
697.07	25.359
697.25	25.359
697.44	25.313
697.62	25.290
697.81	25.185
697.99	25.101
698.18	25.016
698.37	24.999
698.55	24.939
698.74	24.883
698.92	24.899
699.11	24.884
699.29	24.888
699.48	24.926
699.67	24.960
699.85	25.058
700.04	25.167
700.22	25.283
700.41	25.364
700.59	25.447
700.78	25.541
700.96	25.614
701.15	25.698
701.34	25.751
701.52	25.744
701.71	25.749
701.89	25.776
702.08	25.766
702.26	25.719
702.45	25.686
702.63	25.681
702.82	25.631
703.00	25.613
703.19	25.577
703.38	25.584
703.56	25.601
703.75	25.638
703.93	25.613
704.12	25.580
704.30	25.597
704.49	25.576
704.67	25.564
704.86	25.618
705.04	25.604
705.23	25.622
705.41	25.590
705.60	25.592
705.78	25.562
705.97	25.529
706.15	25.530
706.34	25.491
706.52	25.481
706.71	25.501
706.89	25.474
707.08	25.472
707.26	25.475
707.45	25.488
707.63	25.445
707.82	25.413
708.00	25.403
708.19	25.421
708.37	25.424
708.56	25.445
708.74	25.413
708.93	25.426
709.11	25.406
709.30	25.357
709.48	25.348
709.67	25.390
709.85	25.398
710.04	25.391
710.22	25.343
710.41	25.358
710.59	25.306
710.77	25.293
710.96	25.247
711.14	25.287
711.33	25.293
711.51	25.255
711.70	25.304
711.88	25.324
712.07	25.323
712.25	25.354
712.44	25.359
712.62	25.433
712.80	25.471
712.99	25.536
713.17	25.551
713.36	25.601
713.54	25.676
713.73	25.623
713.91	25.650
714.10	25.674
714.28	25.692
714.46	25.706
714.65	25.690
714.83	25.674
715.02	25.650
715.20	25.642
715.39	25.606
715.57	25.563
715.75	25.574
715.94	25.565
716.12	25.553
716.31	25.523
716.49	25.521
716.68	25.532
716.86	25.554
717.04	25.539
717.23	25.528
717.41	25.506
717.60	25.558
717.78	25.599
717.96	25.575
718.15	25.603
718.33	25.663
718.52	25.634
718.70	25.641
718.88	25.601
719.07	25.605
719.25	25.552
719.44	25.526
719.62	25.525
719.80	25.478
719.99	25.514
720.17	25.533
720.36	25.524
720.54	25.543
720.72	25.467
720.91	25.503
721.09	25.554
721.27	25.684
721.46	25.744
721.64	25.759
721.83	25.775
722.01	25.743
722.19	25.744
722.38	25.684
722.56	25.653
722.74	25.658
722.93	25.658
723.11	25.640
723.30	25.579
723.48	25.602
723.66	25.539
723.85	25.561
724.03	25.563
724.21	25.505
724.40	25.526
724.58	25.575
724.76	25.628
724.95	25.562
725.13	25.549
725.31	25.542
725.50	25.510
725.68	25.536
725.86	25.529
726.05	25.552
726.23	25.626
726.41	25.635
726.60	25.553
726.78	25.537
726.96	25.604
727.15	25.584
727.33	25.603
727.51	25.651
727.70	25.665
727.88	25.638
728.06	25.638
728.25	25.644
728.43	25.645
728.61	25.678
728.80	25.706
728.98	25.714
729.16	25.706
729.34	25.659
729.53	25.639
729.71	25.561
729.89	25.556
730.08	25.558
730.26	25.488
730.44	25.495
730.63	25.507
730.81	25.458
730.99	25.423
731.17	25.409
731.36	25.431
731.54	25.465
731.72	25.525
731.91	25.579
732.09	25.580
732.27	25.597
732.45	25.581
732.64	25.589
732.82	25.627
733.00	25.669
733.19	25.736
733.37	25.723
733.55	25.707
733.73	25.731
733.92	25.709
734.10	25.689
734.28	25.752
734.46	25.812
734.65	25.802
734.83	25.811
735.01	25.786
735.19	25.776
735.38	25.781
735.56	25.737
735.74	25.721
735.92	25.754
736.11	25.712
736.29	25.690
736.47	25.605
736.65	25.620
736.84	25.548
737.02	25.536
737.20	25.463
737.38	25.446
737.57	25.478
737.75	25.441
737.93	25.374
738.11	25.422
738.30	25.363
738.48	25.405
738.66	25.409
738.84	25.509
739.02	25.522
739.21	25.569
739.39	25.551
739.57	25.465
739.75	25.516
739.93	25.472
740.12	25.446
740.30	25.447
740.48	25.475
740.66	25.446
740.85	25.440
741.03	25.424
741.21	25.483
741.39	25.540
741.57	25.641
741.76	25.617
741.94	25.754
742.12	25.749
742.30	25.802
742.48	25.788
742.66	25.886
742.85	25.889
743.03	25.878
743.21	25.816
743.39	25.826
743.57	25.765
743.76	25.807
743.94	25.747
744.12	25.740
744.30	25.766
744.48	25.817
744.66	25.810
744.85	25.786
745.03	25.863
745.21	25.862
745.39	25.848
745.57	25.924
745.75	25.900
745.94	25.859
746.12	25.909
746.30	25.852
746.48	25.787
746.66	25.728
746.84	25.708
747.02	25.651
747.21	25.660
747.39	25.687
747.57	25.616
747.75	25.618
747.93	25.616
748.11	25.626
748.29	25.651
748.48	25.628
748.66	25.575
748.84	25.579
749.02	25.591
749.20	25.604
749.38	25.539
749.56	25.540
749.75	25.503
749.93	25.579
750.11	25.525
750.29	25.454
750.47	25.521
750.65	25.569
750.83	25.582
751.01	25.519
751.19	25.512
751.38	25.531
751.56	25.608
751.74	25.599
751.92	25.552
752.10	25.612
752.28	25.669
752.46	25.620
752.64	25.619
752.82	25.572
753.00	25.693
753.19	25.685
753.37	25.682
753.55	25.688
753.73	25.690
753.91	25.680
754.09	25.679
754.27	25.665
754.45	25.655
754.63	25.679
754.81	25.733
754.99	25.683
755.17	25.679
755.36	25.728
755.54	25.644
755.72	25.675
755.90	25.716
756.08	25.753
756.26	25.755
756.44	25.753
756.62	25.733
756.80	25.717
756.98	25.720
757.16	25.691
757.34	25.615
757.52	25.597
757.70	25.612
757.88	25.662
758.06	25.615
758.24	25.645
758.42	25.665
758.61	25.678
758.79	25.627
758.97	25.615
759.15	25.586
759.33	25.670
759.51	25.730
759.69	25.723
759.87	25.687
760.05	25.681
760.23	25.682
760.41	25.679
760.59	25.619
760.77	25.691
760.95	25.695
761.13	25.716
761.31	25.678
761.49	25.657
761.67	25.612
761.85	25.596
762.03	25.582
762.21	25.535
762.39	25.490
762.57	25.472
762.75	25.461
762.93	25.372
763.11	25.390
763.29	25.333
763.47	25.285
763.65	25.284
763.83	25.279
764.01	25.301
764.19	25.320
764.37	25.359
764.55	25.376
764.73	25.380
764.91	25.458
765.09	25.467
765.27	25.525
765.45	25.592
765.63	25.655
765.81	25.669
765.99	25.680
766.17	25.740
766.35	25.749
766.53	25.806
766.71	25.786
766.89	25.793
767.07	25.753
767.25	25.755
767.43	25.751
767.61	25.707
767.78	25.700
767.96	25.706
768.14	25.616
768.32	25.616
768.50	25.648
768.68	25.690
768.86	25.620
769.04	25.679
769.22	25.664
769.40	25.661
769.58	25.704
769.76	25.730
769.94	25.685
770.12	25.718
770.30	25.703
770.48	25.645
770.66	25.602
770.84	25.627
771.01	25.644
771.19	25.714
771.37	25.770
771.55	25.729
771.73	25.704
771.91	25.734
772.09	25.750
772.27	25.727
772.45	25.762
772.63	25.833
772.81	25.779
772.99	25.796
773.16	25.790
773.34	25.705
773.52	25.781
773.70	25.815
773.88	25.839
774.06	25.825
774.24	25.809
774.42	25.790
774.60	25.724
774.78	25.829
774.95	25.797
775.13	25.778
775.31	25.754
775.49	25.713
775.67	25.746
775.85	25.777
776.03	25.693
776.21	25.698
776.38	25.571
776.56	25.590
776.74	25.521
776.92	25.539
777.10	25.474
777.28	25.539
777.46	25.558
777.64	25.541
777.81	25.545
777.99	25.567
778.17	25.550
778.35	25.653
778.53	25.667
778.71	25.730
778.89	25.673
779.06	25.660
779.24	25.647
779.42	25.605
779.60	25.598
779.78	25.573
779.96	25.744
780.13	25.748
780.31	25.738
780.49	25.706
780.67	25.683
780.85	25.763
781.03	25.790
781.20	25.838
781.38	25.825
781.56	25.705
781.74	25.635
781.92	25.520
782.10	25.639
782.27	25.656
782.45	25.739
782.63	25.700
782.81	25.593
782.99	25.667
783.17	25.609
783.34	25.600
783.52	25.668
783.70	25.707
783.88	25.773
784.06	25.705
784.23	25.677
784.41	25.601
784.59	25.741
784.77	25.802
784.95	25.720
785.12	25.780
785.30	25.822
785.48	25.881
785.66	25.895
785.83	25.873
786.01	25.868
786.19	25.913
786.37	25.772
786.55	25.675
786.72	25.642
786.90	25.700
787.08	25.659
787.26	25.647
787.43	25.603
787.61	25.588
787.79	25.566
787.97	25.493
788.15	25.551
788.32	25.712
788.50	25.727
788.68	25.793
788.86	25.878
789.03	25.809
789.21	25.779
789.39	25.805
789.57	25.800
789.74	25.826
789.92	25.860
790.10	25.873
790.28	25.880
790.45	25.920
790.63	25.852
790.81	25.716
790.99	25.699
791.16	25.667
791.34	25.603
791.52	25.637
791.69	25.482
791.87	25.463
792.05	25.318
792.23	25.247
792.40	25.077
792.58	25.099
792.76	25.092
792.94	25.182
793.11	25.273
793.29	25.356
793.47	25.288
793.64	25.388
793.82	25.474
794.00	25.515
794.18	25.493
794.35	25.722
794.53	25.781
794.71	25.728
794.88	25.658
795.06	25.602
795.24	25.637
795.41	25.617
795.59	25.637
795.77	25.554
795.94	25.551
796.12	25.615
796.30	25.457
796.48	25.435
796.65	25.406
796.83	25.496
797.01	25.507
797.18	25.391
797.36	25.438
797.54	25.352
797.71	25.441
797.89	25.443
798.07	25.394
798.24	25.413
798.42	25.449
798.60	25.472
798.77	25.454
798.95	25.424
799.13	25.531
799.30	25.541
799.48	25.582
799.66	25.500
799.83	25.513
800.01	25.508
800.18	25.566
800.36	25.450
800.54	25.594
800.71	25.577
800.89	25.469
801.07	25.322
801.24	25.371
801.42	25.484
801.60	25.557
801.77	25.509
801.95	25.446
802.12	25.422
802.30	25.513
802.48	25.384
802.65	25.286
802.83	25.445
803.01	25.533
803.18	25.480
803.36	25.345
803.53	25.200
803.71	25.259
803.89	25.399
804.06	25.393
804.24	25.345
804.41	25.306
804.59	25.574
804.77	25.582
804.94	25.544
805.12	25.451
805.29	25.639
805.47	25.752
805.65	25.658
805.82	25.637
806.00	25.634
806.17	25.584
806.35	25.620
806.53	25.393
806.70	25.449
806.88	25.444
807.05	25.580
807.23	25.423
807.40	25.382
807.58	25.387
807.76	25.240
807.93	25.235
808.11	25.257
808.28	25.316
808.46	25.321
808.63	25.251
808.81	25.261
808.99	25.190
809.16	25.193
809.34	25.230
809.51	25.234
809.69	25.363
809.86	25.363
810.04	25.367
810.21	25.395
810.39	25.455
810.57	25.376
810.74	25.354
810.92	25.238
811.09	25.150
811.27	25.050
811.44	25.088
811.62	25.162
811.79	25.136
811.97	25.249
812.14	25.214
812.32	25.135
812.49	25.187
812.67	25.264
812.84	25.414
813.02	25.477
813.19	25.567
813.37	25.540
813.55	25.406
813.72	25.476
813.90	25.432
814.07	25.392
814.25	25.431
814.42	25.497
814.60	25.452
814.77	25.463
814.95	25.460
815.12	25.490
815.30	25.743
815.47	25.803
815.65	25.819
815.82	25.877
816.00	25.975
816.17	26.014
816.35	25.990
816.52	25.964
816.69	25.926
816.87	25.961
817.04	25.852
817.22	25.775
817.39	25.697
817.57	25.639
817.74	25.643
817.92	25.616
818.09	25.579
818.27	25.586
818.44	25.494
818.62	25.399
818.79	25.432
818.97	25.520
819.14	25.413
819.32	25.563
819.49	25.685
819.66	25.582
819.84	25.670
820.01	25.632
820.19	25.627
820.36	25.735
820.54	25.821
820.71	25.770
820.89	25.794
821.06	25.810
821.23	25.794
821.41	25.609
821.58	25.612
821.76	25.478
821.93	25.408
822.11	25.330
822.28	25.257
822.45	25.214
822.63	25.195
822.80	25.171
822.98	25.170
823.15	25.154
823.33	25.175
823.50	25.166
823.67	25.165
823.85	25.180
824.02	25.200
824.20	25.252
824.37	25.282
824.54	25.344
824.72	25.391
824.89	25.412
825.07	25.478
825.24	25.494
825.41	25.531
825.59	25.603
825.76	25.668
825.94	25.676
826.11	25.655
826.28	25.727
826.46	25.697
826.63	25.683
826.80	25.637
826.98	25.601
827.15	25.580
827.33	25.561
827.50	25.541
827.67	25.509
827.85	25.523
828.02	25.516
828.19	25.495
828.37	25.511
828.54	25.501
828.72	25.543
828.89	25.527
829.06	25.552
829.24	25.536
829.41	25.553
829.58	25.586
829.76	25.648
829.93	25.706
830.10	25.706
830.28	25.707
830.45	25.789
830.62	25.806
830.80	25.817
830.97	25.816
831.14	26.068
831.32	25.993
831.49	26.022
831.66	26.078
831.84	26.059
832.01	26.113
832.18	26.075
832.36	26.013
832.53	26.057
832.70	26.147
832.88	26.230
833.05	26.062
833.22	26.025
833.40	25.981
833.57	25.865
833.74	25.776
833.91	25.764
834.09	25.734
834.26	25.688
834.43	25.662
834.61	25.609
834.78	25.551
834.95	25.520
835.13	25.543
835.30	25.538
835.47	25.526
835.64	25.552
835.82	25.502
835.99	25.520
836.16	25.585
836.34	25.556
836.51	25.589
836.68	25.616
836.85	25.582
837.03	25.593
837.20	25.578
837.37	25.602
837.54	25.611
837.72	25.705
837.89	25.735
838.06	25.740
838.24	25.679
838.41	25.673
838.58	25.596
838.75	25.586
838.93	25.517
839.10	25.519
839.27	25.592
839.44	25.446
839.62	25.392
839.79	25.422
839.96	25.511
840.13	25.690
840.31	25.533
840.48	25.612
840.65	25.628
840.82	25.614
840.99	25.713
841.17	25.608
841.34	25.798
841.51	25.804
841.68	25.648
841.86	25.493
842.03	25.430
842.20	25.505
842.37	25.461
842.55	25.453
842.72	25.403
842.89	25.091
843.06	25.084
843.23	25.048
843.41	25.011
843.58	25.214
843.75	25.413
843.92	25.763
844.09	26.050
844.27	26.251
844.44	26.478
844.61	26.798
844.78	27.013
844.95	27.058
845.13	26.864
845.30	27.056
845.47	27.064
845.64	27.237
845.81	26.911
845.98	26.936
846.16	26.469
846.33	26.677
846.50	26.451
846.67	26.702
846.84	26.855
847.02	27.179
847.19	26.730
847.36	26.533
847.53	26.439
847.70	26.518
847.87	26.368
848.04	26.889
848.22	26.333
848.39	26.485
848.56	26.258
848.73	26.359
848.90	26.324
849.07	26.589
849.25	27.082
849.42	26.710
849.59	26.603
849.76	26.860
849.93	26.515
850.10	26.655
850.27	26.330
850.45	26.479
850.62	26.340
850.79	26.149
850.96	26.396
851.13	26.291
851.30	26.326
851.47	26.226
851.64	25.788
851.82	25.925
851.99	26.220
852.16	26.435
852.33	26.245
852.50	26.071
852.67	26.187
852.84	25.762
853.01	25.665
853.18	25.933
853.35	25.939
853.53	26.284
853.70	26.588
853.87	26.470
854.04	26.320
854.21	26.250
854.38	26.226
854.55	26.072
854.72	26.476
854.89	26.286
855.06	26.149
855.23	26.321
855.41	26.250
855.58	26.317
855.75	26.372
855.92	26.502
856.09	26.491
856.26	26.852
856.43	27.210
856.60	26.933
856.77	26.655
856.94	26.755
857.11	26.755
857.28	26.892
857.45	26.498
857.62	26.203
857.80	26.277
857.97	26.355
858.14	26.009
858.31	26.017
858.48	25.974
858.65	26.264
858.82	26.226
858.99	26.173
859.16	26.036
859.33	26.276
859.50	26.560
859.67	26.549
859.84	26.656
860.01	26.897
860.18	26.683
860.35	27.264
860.52	27.183
860.69	26.918
860.86	26.572
861.03	26.534
861.20	26.639
861.37	26.519
861.54	26.720
861.71	26.998
861.88	27.471
862.05	27.299
862.22	27.059
862.39	27.531
862.56	27.835
862.73	28.043
862.90	28.055
863.07	27.799
863.24	27.634
863.41	27.293
863.58	26.722
863.75	26.475
863.92	26.518
864.09	26.776
864.26	26.139
864.43	26.222
864.60	26.269
864.77	26.057
864.94	26.094
865.11	26.070
865.28	26.206
865.45	26.320
865.62	26.049
865.79	26.028
865.96	25.588
866.13	25.756
866.30	25.361
866.47	25.631
866.64	25.828
866.81	25.596
866.98	25.894
867.15	25.899
867.32	25.911
867.49	26.031
867.66	25.927
867.82	25.760
867.99	26.069
868.16	26.251
868.33	25.896
868.50	25.787
868.67	25.980
868.84	25.712
869.01	25.580
869.18	25.976
869.35	25.985
869.52	26.094
869.69	26.397
869.86	26.168
870.03	26.136
870.19	26.410
870.36	26.421
870.53	26.578
870.70	26.755
870.87	26.873
871.04	26.336
871.21	26.014
871.38	26.003
871.55	25.977
871.72	25.870
871.89	25.944
872.05	25.818
872.22	25.609
872.39	25.744
872.56	25.731
872.73	25.625
872.90	25.879
873.07	26.051
873.24	26.071
873.41	26.300
873.57	26.186
873.74	26.205
873.91	25.908
874.08	26.118
874.25	25.788
874.42	25.646
874.59	25.786
874.76	25.858
874.92	25.704
875.09	25.788
875.26	25.451
875.43	25.700
875.60	25.702
875.77	25.781
875.94	25.968
876.11	25.915
876.27	25.914
876.44	25.827
876.61	26.036
876.78	26.293
876.95	26.472
877.12	26.431
877.28	26.278
877.45	26.243
877.62	26.202
877.79	25.896
877.96	26.028
878.13	25.993
878.29	26.223
878.46	25.900
878.63	26.048
878.80	25.819
878.97	25.685
879.14	25.815
879.30	25.622
879.47	25.840
879.64	25.887
879.81	25.807
879.98	25.905
880.14	25.697
880.31	25.801
880.48	25.712
880.65	25.755
880.82	25.773
880.98	25.620
881.15	25.511
881.32	25.359
881.49	25.276
881.66	25.185
881.82	25.182
881.99	25.196
882.16	25.178
882.33	25.183
882.50	25.138
882.66	25.158
882.83	25.187
883.00	25.232
883.17	25.275
883.33	25.357
883.50	25.443
883.67	25.484
883.84	25.529
884.01	25.562
884.17	25.638
884.34	25.725
884.51	25.746
884.68	25.748
884.84	25.789
885.01	25.870
885.18	25.869
885.35	25.866
885.51	25.866
885.68	25.860
885.85	25.888
886.02	25.784
886.18	25.824
886.35	25.773
886.52	25.816
886.69	25.799
886.85	25.807
887.02	25.681
887.19	25.878
887.35	25.976
887.52	25.996
887.69	26.008
887.86	25.996
888.02	25.911
888.19	26.007
888.36	25.952
888.53	25.381
888.69	26.330
888.86	25.057
889.03	25.753
>>>>>End Spectral Data<<<<<
