HeliangelusExortis_Gorget_BKGCorrect_5
Reflectance
SciMode:IT1=448.99ms:NS1=10:IT2=577.29ms:NS2=10:Obj=15X:(9/28/2012 3:47:08 PM)
280.11	13.3999
280.28	13.2646
280.45	13.4097
280.62	13.9000
280.79	13.5736
280.96	13.9723
281.13	14.0663
281.30	13.7249
281.47	13.8943
281.64	12.8758
281.81	13.0066
281.98	12.7989
282.15	13.0284
282.32	13.0581
282.49	13.1655
282.65	13.0987
282.82	12.7018
282.99	12.8468
283.16	12.9493
283.33	13.1563
283.50	13.3882
283.67	13.1286
283.84	12.8162
284.01	12.5899
284.18	12.1681
284.35	11.7563
284.52	12.0593
284.69	11.9949
284.85	11.9550
285.02	11.5041
285.19	10.8544
285.36	11.2361
285.53	11.4862
285.70	11.6161
285.87	11.7486
286.04	11.8943
286.21	11.4599
286.38	11.3603
286.54	11.1185
286.71	10.9868
286.88	11.1653
287.05	11.0828
287.22	10.5351
287.39	10.5280
287.56	10.4771
287.73	10.3909
287.90	10.3098
288.06	11.0481
288.23	11.0660
288.40	11.4355
288.57	11.0564
288.74	11.1894
288.91	11.2507
289.08	10.9529
289.25	10.6098
289.41	10.6141
289.58	10.1530
289.75	10.1117
289.92	9.8183
290.09	9.5520
290.26	9.4182
290.43	9.5773
290.59	8.9958
290.76	8.9022
290.93	9.1449
291.10	9.2176
291.27	9.2313
291.44	9.4303
291.60	9.2307
291.77	9.0538
291.94	9.5397
292.11	9.3765
292.28	9.3204
292.45	9.6419
292.61	9.4009
292.78	8.7745
292.95	8.5693
293.12	8.2496
293.29	8.2045
293.46	8.1259
293.62	7.9160
293.79	7.6282
293.96	7.4602
294.13	7.2444
294.30	7.2244
294.46	7.4369
294.63	7.7600
294.80	7.7756
294.97	3.1137
295.14	2.9530
295.30	2.7140
295.47	2.7059
295.64	2.6077
295.81	2.4462
295.98	2.4591
296.14	2.3218
296.31	2.1633
296.48	2.3418
296.65	2.2251
296.82	6.5950
296.98	6.5625
297.15	6.4879
297.32	6.6956
297.49	6.3917
297.65	6.4558
297.82	6.6278
297.99	6.3999
298.16	6.2906
298.33	5.8899
298.49	5.9008
298.66	5.7347
298.83	5.4900
299.00	5.6135
299.16	5.1682
299.33	5.2696
299.50	5.3422
299.67	5.1241
299.83	5.4159
300.00	5.7109
300.17	5.8947
300.34	5.6275
300.50	5.8156
300.67	5.9318
300.84	5.6317
301.01	5.8042
301.17	5.4681
301.34	5.5309
301.51	5.5546
301.67	5.1803
301.84	4.8052
302.01	4.2967
302.18	4.2851
302.34	4.0219
302.51	4.0842
302.68	4.2747
302.85	4.2411
303.01	4.1747
303.18	3.8375
303.35	3.5968
303.51	3.5679
303.68	3.3274
303.85	3.5755
304.02	3.6846
304.18	3.4422
304.35	3.1930
304.52	2.9553
304.68	2.6370
304.85	2.8041
305.02	2.7821
305.18	2.6859
305.35	2.5403
305.52	2.7205
305.68	2.8387
305.85	2.6805
306.02	2.8252
306.18	2.6464
306.35	2.5048
306.52	2.5541
306.69	2.1292
306.85	2.1141
307.02	2.1279
307.19	2.1500
307.35	1.9975
307.52	1.9936
307.69	1.9557
307.85	1.9354
308.02	2.3245
308.19	2.6791
308.35	2.6436
308.52	2.8908
308.68	2.8663
308.85	2.8546
309.02	3.0048
309.18	2.8968
309.35	2.7199
309.52	2.9736
309.68	3.0217
309.85	2.7986
310.02	2.5800
310.18	2.5653
310.35	2.3963
310.52	2.6849
310.68	2.7905
310.85	2.6506
311.01	2.5874
311.18	2.4135
311.35	2.2433
311.51	2.2862
311.68	2.0085
311.85	1.9301
312.01	1.9919
312.18	2.0719
312.34	1.5652
312.51	1.3211
312.68	1.0796
312.84	1.4302
313.01	1.5481
313.17	1.3934
313.34	1.1460
313.51	1.5286
313.67	1.5721
313.84	1.6037
314.00	1.4681
314.17	1.4659
314.34	1.4865
314.50	1.4762
314.67	1.1816
314.83	1.0484
315.00	1.0772
315.16	1.3894
315.33	1.2014
315.50	1.1689
315.66	0.9858
315.83	1.0942
315.99	1.0598
316.16	1.2868
316.33	1.4343
316.49	1.5288
316.66	1.5419
316.82	1.5058
316.99	1.5456
317.15	1.6162
317.32	1.7335
317.48	1.8328
317.65	1.8479
317.82	1.9715
317.98	1.8143
318.15	2.0331
318.31	1.9807
318.48	2.0234
318.64	2.2371
318.81	1.9846
318.97	1.9862
319.14	1.9349
319.30	2.1067
319.47	1.9939
319.63	1.7836
319.80	1.7528
319.97	1.5897
320.13	1.7196
320.30	1.8823
320.46	1.7915
320.63	1.8629
320.79	1.9223
320.96	1.8583
321.12	1.6611
321.29	1.6624
321.45	2.0870
321.62	2.2763
321.78	2.2520
321.95	2.2140
322.11	2.1464
322.28	2.1695
322.44	2.0156
322.61	1.9357
322.77	2.0441
322.94	2.0898
323.10	2.1912
323.27	2.1473
323.43	1.9211
323.60	1.9277
323.76	1.9103
323.93	2.1242
324.09	2.0579
324.26	2.2514
324.42	2.2226
324.59	2.1263
324.75	2.2048
324.91	2.1902
325.08	2.0842
325.24	2.4042
325.41	2.5495
325.57	2.5959
325.74	2.5126
325.90	2.5497
326.07	2.3735
326.23	2.5980
326.40	2.6468
326.56	2.5742
326.73	2.6437
326.89	2.6543
327.05	2.6642
327.22	2.5612
327.38	2.5918
327.55	2.5200
327.71	2.5552
327.88	2.7932
328.04	2.8695
328.20	3.1038
328.37	3.3023
328.53	3.5181
328.70	3.6065
328.86	3.5386
329.03	3.5301
329.19	3.7005
329.35	3.7619
329.52	3.8696
329.68	3.8321
329.85	3.8688
330.01	3.7956
330.18	4.0345
330.34	4.0380
330.50	4.1978
330.67	4.3548
330.83	4.5302
331.00	4.5687
331.16	4.6096
331.32	4.8155
331.49	4.9872
331.65	4.9217
331.82	5.0231
331.98	4.8233
332.14	4.8748
332.31	22.0512
332.47	22.4236
332.63	22.5153
332.80	22.7115
332.96	22.8419
333.13	22.5722
333.29	22.7048
333.45	22.6905
333.62	22.8324
333.78	22.7201
333.94	22.8428
334.11	5.8511
334.27	5.4871
334.44	5.4483
334.60	5.4488
334.76	5.4736
334.93	5.8070
335.09	5.6967
335.25	5.8296
335.42	5.6919
335.58	5.7908
335.74	5.8543
335.91	5.9975
336.07	6.1163
336.23	6.3062
336.40	6.2862
336.56	6.4251
336.72	6.6157
336.89	6.7148
337.05	6.7898
337.21	6.9354
337.38	7.0953
337.54	6.9548
337.70	7.0239
337.87	7.0423
338.03	6.9739
338.19	7.0565
338.36	7.1013
338.52	6.9963
338.68	7.1712
338.85	7.1788
339.01	7.2896
339.17	7.3177
339.34	7.5153
339.50	7.9239
339.66	8.1062
339.82	8.2264
339.99	8.3056
340.15	8.3521
340.31	8.2625
340.48	8.3718
340.64	8.6160
340.80	8.6801
340.97	8.8598
341.13	8.9929
341.29	8.9520
341.45	8.9102
341.62	8.9411
341.78	8.9042
341.94	9.0518
342.10	9.1426
342.27	9.1145
342.43	9.0215
342.59	9.2080
342.76	9.2833
342.92	9.2453
343.08	9.1920
343.24	9.2512
343.41	9.4833
343.57	9.6270
343.73	9.6748
343.89	9.8782
344.06	9.8507
344.22	9.9602
344.38	10.0363
344.54	10.1316
344.71	10.2319
344.87	10.3205
345.03	10.4451
345.19	10.5106
345.36	10.5280
345.52	10.6395
345.68	10.7090
345.84	10.9017
346.00	10.9561
346.17	10.8494
346.33	10.8729
346.49	11.0288
346.65	11.2693
346.82	11.3201
346.98	11.2420
347.14	11.3668
347.30	11.3751
347.46	11.5531
347.63	11.6213
347.79	11.7704
347.95	11.8918
348.11	11.9195
348.27	12.0451
348.44	11.9315
348.60	11.8146
348.76	11.9388
348.92	12.0119
349.08	12.1727
349.25	12.1632
349.41	12.1612
349.57	12.1385
349.73	12.2880
350.06	12.3154
350.22	12.4559
350.38	12.6901
350.54	12.9639
350.70	12.8904
350.86	12.8617
351.03	12.7893
351.19	13.0270
351.35	13.0378
351.51	13.0293
351.67	13.2261
351.83	13.2780
352.00	13.4979
352.16	13.5736
352.32	13.5319
352.48	13.6655
352.64	13.7698
352.80	13.9040
352.97	13.8411
353.13	14.0126
353.29	14.0866
353.45	14.0373
353.61	14.1212
353.77	13.9496
353.93	13.9955
354.10	13.9983
354.26	14.2017
354.42	14.3409
354.58	14.4321
354.74	14.4994
354.90	14.4606
355.06	14.5468
355.22	14.8055
355.39	14.7991
355.55	14.9571
355.71	15.0216
355.87	15.1465
356.03	15.1642
356.19	15.1207
356.35	15.2404
356.51	15.2028
356.67	15.4719
356.83	15.4036
357.00	15.2177
357.16	15.3348
357.32	15.3666
357.48	15.4711
357.64	15.5344
357.80	15.4682
357.96	15.5553
358.12	15.4276
358.28	15.6681
358.44	15.6493
358.60	15.8316
358.77	15.9075
358.93	15.8640
359.09	15.9562
359.25	15.9998
359.41	15.9911
359.57	16.1552
359.73	16.1950
359.89	16.3862
360.05	16.4765
360.21	16.5089
360.37	16.5756
360.53	16.6730
360.69	16.7685
360.85	16.7194
361.01	16.7516
361.17	16.7580
361.34	16.8342
361.50	16.8875
361.66	16.9899
361.82	16.8439
361.98	16.9377
362.14	16.9776
362.30	16.9648
362.46	17.0056
362.62	17.1067
362.78	17.2138
362.94	17.3524
363.10	17.3858
363.26	17.3969
363.42	17.2688
363.58	17.4436
363.74	17.4309
363.90	17.5103
364.06	17.6167
364.22	17.7132
364.38	17.8323
364.54	17.8471
364.70	17.8274
364.86	17.7655
365.02	18.0243
365.18	18.0442
365.34	17.9996
365.50	18.1193
365.66	18.1937
365.82	18.2523
365.98	18.2132
366.14	18.1400
366.30	18.1043
366.46	18.1113
366.62	18.2104
366.78	18.0192
366.94	18.2118
367.10	18.2671
367.26	18.0938
367.42	18.0772
367.58	18.1948
367.74	18.2605
367.90	18.2593
368.06	18.3766
368.22	18.4128
368.38	18.3433
368.54	18.3424
368.70	18.3396
368.86	18.3643
369.02	18.5830
369.18	18.6440
369.33	18.6063
369.49	18.5783
369.65	18.6362
369.81	18.6612
369.97	18.7427
370.13	18.8181
370.29	18.9497
370.45	18.8766
370.61	19.0195
370.77	18.9783
370.93	18.9970
371.09	19.0404
371.25	19.1038
371.41	19.0687
371.57	19.0548
371.73	18.9717
371.88	19.0301
372.04	18.9485
372.20	18.9747
372.36	18.9411
372.52	18.8854
372.68	18.9528
372.84	19.0190
373.00	19.1265
373.16	19.3462
373.32	19.4361
373.48	19.5939
373.63	19.6787
373.79	19.6908
373.95	19.8096
374.11	19.7800
374.27	19.9047
374.43	19.9981
374.59	19.9889
374.75	19.9890
374.91	19.9640
375.06	19.9462
375.22	20.0196
375.38	20.0038
375.54	20.1470
375.70	20.2282
375.86	20.3257
376.02	20.2851
376.18	20.0934
376.33	20.0759
376.49	20.1188
376.65	20.0428
376.81	20.1253
376.97	19.9835
377.13	19.9046
377.29	19.9454
377.44	19.9123
377.60	20.0184
377.76	20.0839
377.92	20.2045
378.08	20.2848
378.24	20.3794
378.40	20.4502
378.55	20.4014
378.71	20.5828
378.87	20.7299
379.03	20.8169
379.19	21.0376
379.35	21.1237
379.50	21.3469
379.66	21.5251
379.82	21.6284
379.98	21.7527
380.14	21.9152
380.29	22.0198
380.45	21.9493
380.61	22.0239
380.77	22.0103
380.93	21.9377
381.09	22.0453
381.24	22.0572
381.40	22.1154
381.56	22.1838
381.72	22.1752
381.88	22.1842
382.03	22.3022
382.19	22.4061
382.35	22.4229
382.51	22.5213
382.67	22.5508
382.82	22.4682
382.98	22.4630
383.14	22.3809
383.30	22.4583
383.45	22.4933
383.61	22.6225
383.77	22.6220
383.93	22.7238
384.09	22.7931
384.24	22.8883
384.40	23.0346
384.56	23.2189
384.72	23.2800
384.87	23.4310
385.03	23.4206
385.19	23.5717
385.35	23.6366
385.50	23.8034
385.66	23.9095
385.82	24.1398
385.98	24.3080
386.13	24.3844
386.29	24.4632
386.45	24.6491
386.61	24.7582
386.76	24.8251
386.92	24.8760
387.08	25.0825
387.24	25.2448
387.39	25.3931
387.55	25.4792
387.71	25.5674
387.86	25.7363
388.02	25.8630
388.18	25.9826
388.34	26.1214
388.49	26.3145
388.65	26.5083
388.81	26.6752
388.96	26.8339
389.12	27.0093
389.28	27.1436
389.44	27.3121
389.59	27.4447
389.75	27.6733
389.91	27.8294
390.06	27.9452
390.22	28.1673
390.38	28.2347
390.53	28.4061
390.69	28.4885
390.85	28.6723
391.01	28.8769
391.16	29.0092
391.32	29.1770
391.48	29.3146
391.63	29.4550
391.79	29.7431
391.95	29.8891
392.10	30.2367
392.26	30.5394
392.42	30.8690
392.57	31.0871
392.73	31.1929
392.89	31.3481
393.04	31.6260
393.20	31.8945
393.36	32.1877
393.51	32.4510
393.67	32.7273
393.83	32.9367
393.98	33.1048
394.14	33.3141
394.29	33.6001
394.45	33.8539
394.61	34.1418
394.76	34.4913
394.92	34.7469
395.08	35.0254
395.23	35.1972
395.39	35.4491
395.55	35.7155
395.70	36.0275
395.86	36.3079
396.01	36.4222
396.17	36.7955
396.33	37.0342
396.48	37.2542
396.64	37.5243
396.80	37.8247
396.95	38.0395
397.11	38.2548
397.26	38.5542
397.42	38.9045
397.58	39.1689
397.73	39.4747
397.89	39.7568
398.04	40.0316
398.20	40.3228
398.36	40.6462
398.51	40.9474
398.67	41.3254
398.82	41.6997
398.98	41.9570
399.13	42.3352
399.29	42.7549
399.45	43.1522
399.60	43.4347
399.76	43.7526
399.91	44.2523
400.07	44.6040
400.23	45.0550
400.38	45.4269
400.54	45.6804
400.69	46.0499
400.85	46.2773
401.00	46.5592
401.16	47.0124
401.31	47.3245
401.47	47.5377
401.63	47.7174
401.78	47.8957
401.94	48.1340
402.09	48.3620
402.25	48.5253
402.40	48.7367
402.56	49.0388
402.71	49.2693
402.87	49.4483
403.02	49.6433
403.18	50.0767
403.33	50.5367
403.49	50.8435
403.65	51.0323
403.80	51.4272
403.96	51.7765
404.11	52.0790
404.27	52.3518
404.42	52.6700
404.58	53.0650
404.73	53.4842
404.89	53.7159
405.04	53.8603
405.20	54.2238
405.35	54.7140
405.51	55.0498
405.66	55.3382
405.82	55.7047
405.97	55.9925
406.13	56.3241
406.28	56.6458
406.44	57.0668
406.59	57.3870
406.75	57.7301
406.90	57.8914
407.06	58.1037
407.21	58.5955
407.37	58.7957
407.52	59.0639
407.68	59.3547
407.83	59.6345
407.98	59.9592
408.14	59.9951
408.29	60.2259
408.45	60.4831
408.60	60.9364
408.76	61.1985
408.91	61.2082
409.07	61.6263
409.22	61.9179
409.38	62.1801
409.53	62.4050
409.69	62.7149
409.84	63.0064
409.99	63.1770
410.15	63.4654
410.30	63.5582
410.46	63.9376
410.61	64.3308
410.77	64.5638
410.92	64.7641
411.07	64.9211
411.23	65.0032
411.38	65.2694
411.54	65.5972
411.69	65.9095
411.85	66.2217
412.00	66.6011
412.15	66.7994
412.31	67.0595
412.46	67.3140
412.62	67.6051
412.77	67.9813
412.93	68.6108
413.08	68.9823
413.23	69.4223
413.39	69.8244
413.54	70.3301
413.70	70.5685
413.85	70.9275
414.00	71.3234
414.16	71.5654
414.31	71.6845
414.46	71.8327
414.62	71.8246
414.77	72.2312
414.93	72.7069
415.08	73.2279
415.23	73.5288
415.39	74.0982
415.54	74.2480
415.70	74.5447
415.85	74.8017
416.00	75.2436
416.16	75.5969
416.31	75.9806
416.46	76.2506
416.62	76.4538
416.77	76.8536
416.92	77.3299
417.08	77.3019
417.23	77.6120
417.38	77.8873
417.54	78.3378
417.69	78.7874
417.85	79.6183
418.00	80.1315
418.15	80.6348
418.31	81.0814
418.46	81.4105
418.61	81.8251
418.77	82.5298
418.92	83.0507
419.07	83.4187
419.23	83.8669
419.38	84.3058
419.53	84.7055
419.68	84.9909
419.84	85.4045
419.99	85.9714
420.14	86.2864
420.30	86.4511
420.45	86.9182
420.60	87.1173
420.76	87.6881
420.91	88.0027
421.06	88.6817
421.22	89.0913
421.37	90.0060
421.52	90.5230
421.67	90.5982
421.83	90.8184
421.98	91.5397
422.13	91.6202
422.29	92.1867
422.44	92.7339
422.59	93.2005
422.74	93.5693
422.90	94.1833
423.05	94.5305
423.20	95.1779
423.36	95.8106
423.51	96.1301
423.66	96.2054
423.81	96.3532
423.97	96.8904
424.12	97.2411
424.27	97.6523
424.42	97.9355
424.58	98.1233
424.73	98.4224
424.88	98.6436
425.03	99.2639
425.19	99.6465
425.34	99.8997
425.49	100.3480
425.64	100.4424
425.80	100.5827
425.95	100.9005
426.10	101.4850
426.25	101.8041
426.41	102.2971
426.56	102.9535
426.71	103.3407
426.86	103.7313
427.01	104.1016
427.17	104.4562
427.32	104.7688
427.47	105.1517
427.62	105.5880
427.78	106.0695
427.93	106.5173
428.08	106.8509
428.23	107.0907
428.38	107.3634
428.54	107.7629
428.69	108.2874
428.84	108.9272
428.99	109.4067
429.14	109.9714
429.30	110.5244
429.45	110.6436
429.60	111.2606
429.75	111.9896
429.90	112.5291
430.06	113.2457
430.21	113.7033
430.36	113.9281
430.51	114.0811
430.66	114.4385
430.81	114.9907
430.97	115.5542
431.12	115.8709
431.27	116.1189
431.42	116.1740
431.57	116.6170
431.72	116.9957
431.88	117.5351
432.03	117.8733
432.18	118.3341
432.33	118.4749
432.48	118.4645
432.63	118.9991
432.78	119.5734
432.94	120.2701
433.09	120.9738
433.24	121.0816
433.39	121.8370
433.54	121.8852
433.69	122.3568
433.84	122.3438
434.00	122.4696
434.15	122.6891
434.30	122.7750
434.45	122.9668
434.60	123.2579
434.75	123.8364
434.90	124.1634
435.05	124.1161
435.21	124.7061
435.36	124.7732
435.51	125.4255
435.66	125.9845
435.81	126.0555
435.96	126.3923
436.11	126.7075
436.26	126.9676
436.41	127.0886
436.57	127.8090
436.72	128.3771
436.87	128.7122
437.02	128.9970
437.17	129.2031
437.32	129.4593
437.47	129.8163
437.62	130.3098
437.77	130.7109
437.92	131.2709
438.07	131.6935
438.22	132.1080
438.38	132.8826
438.53	133.3288
438.68	134.1230
438.83	134.5553
438.98	134.3684
439.13	134.8545
439.28	135.2171
439.43	135.1502
439.58	135.1809
439.73	135.9423
439.88	136.5053
440.03	136.5256
440.18	137.0142
440.33	137.3127
440.48	137.5081
440.63	137.6209
440.78	137.7982
440.93	137.8883
441.08	138.3401
441.23	139.0943
441.39	139.5169
441.54	139.6493
441.69	140.3347
441.84	140.4286
441.99	140.4655
442.14	140.7203
442.29	141.0861
442.44	141.2976
442.59	141.3078
442.74	141.5808
442.89	141.7412
443.04	141.9215
443.19	142.4982
443.34	142.5381
443.49	142.3961
443.64	142.5686
443.79	143.1264
443.94	143.6347
444.09	144.1132
444.24	144.6420
444.39	144.8399
444.54	145.2587
444.69	145.6178
444.84	145.6622
444.99	145.6733
445.14	146.1381
445.29	146.2174
445.44	146.0127
445.59	146.0498
445.74	146.1601
445.89	146.4101
446.04	146.3481
446.18	146.1937
446.33	146.1099
446.48	146.0038
446.63	146.1561
446.78	146.1410
446.93	146.2139
447.08	146.4049
447.23	146.1540
447.38	145.8425
447.53	145.5090
447.68	145.2325
447.83	145.0898
447.98	145.5522
448.13	146.0877
448.28	146.0489
448.43	145.9263
448.58	145.8283
448.73	145.6838
448.88	145.6542
449.02	145.4479
449.17	145.4044
449.32	145.3631
449.47	145.4084
449.62	145.2247
449.77	144.9973
449.92	145.1300
450.07	145.1082
450.22	144.9571
450.37	144.6650
450.52	144.3255
450.67	144.3286
450.81	144.2925
450.96	144.4030
451.11	144.5191
451.26	144.6036
451.41	145.1990
451.56	145.2139
451.71	145.2231
451.86	145.4108
452.01	145.3623
452.15	145.3951
452.30	145.4618
452.45	145.6609
452.60	145.8022
452.75	145.6107
452.90	145.6315
453.05	145.1127
453.20	145.3383
453.34	145.2877
453.49	145.0557
453.64	144.6805
453.79	144.5665
453.94	144.6730
454.09	144.6669
454.24	144.2614
454.39	144.2403
454.53	144.0246
454.68	143.9142
454.83	143.6684
454.98	143.8810
455.13	143.9070
455.28	144.0680
455.42	144.0610
455.57	144.0159
455.72	143.8208
455.87	144.0483
456.02	143.7075
456.17	143.7976
456.31	143.7810
456.46	143.2547
456.61	142.8847
456.76	142.6023
456.91	142.4884
457.06	142.7075
457.20	142.4685
457.35	142.5168
457.50	143.0163
457.65	143.0816
457.80	142.7336
457.94	142.5615
458.09	142.1429
458.24	142.2942
458.39	142.8038
458.54	143.5282
458.68	143.6915
458.83	143.9101
458.98	143.8870
459.13	143.6221
459.28	143.7625
459.42	144.0109
459.57	144.4039
459.72	144.9159
459.87	145.0878
460.01	144.9759
460.16	144.7486
460.31	144.5629
460.46	144.8245
460.61	145.1134
460.75	144.7802
460.90	144.2946
461.05	144.3354
461.20	144.1011
461.34	144.0294
461.49	143.6279
461.64	143.2299
461.79	142.9934
461.93	143.1277
462.08	142.9846
462.23	142.6799
462.38	142.8376
462.52	142.8435
462.67	142.9831
462.82	143.2117
462.97	143.1271
463.11	143.4638
463.26	143.6949
463.41	143.8026
463.55	143.7982
463.70	144.0333
463.85	144.3948
464.00	144.4458
464.14	144.6642
464.29	144.7809
464.44	145.0088
464.58	145.0345
464.73	145.1095
464.88	145.0579
465.03	144.4855
465.17	144.3320
465.32	144.3411
465.47	144.2715
465.61	144.0523
465.76	143.7527
465.91	143.6638
466.06	143.4840
466.20	143.6072
466.35	143.3718
466.50	143.3884
466.64	143.6420
466.79	143.5881
466.94	143.5259
467.08	143.4499
467.23	143.5113
467.38	143.6080
467.52	143.5775
467.67	143.4992
467.82	143.4699
467.96	143.4390
468.11	143.3961
468.26	143.1126
468.40	143.0627
468.55	143.1063
468.70	143.1136
468.84	143.2881
468.99	143.5507
469.14	143.6248
469.28	143.6301
469.43	143.6589
469.57	143.7964
469.72	143.8747
469.87	144.2140
470.01	144.3734
470.16	144.4594
470.31	144.6609
470.45	144.7137
470.60	144.7044
470.75	144.7358
470.89	144.7694
471.04	144.7614
471.18	144.4922
471.33	144.3043
471.48	144.0991
471.62	143.8600
471.77	143.6829
471.91	143.3547
472.06	143.1402
472.21	142.8414
472.35	142.5857
472.50	142.3539
472.64	142.0518
472.79	141.8360
472.94	141.6575
473.08	141.4372
473.23	141.3874
473.37	141.3059
473.52	141.2598
473.67	141.1246
473.81	141.0324
473.96	140.9877
474.10	140.7885
474.25	140.6412
474.40	140.6079
474.54	140.5152
474.69	140.3409
474.83	140.1608
474.98	139.9261
475.12	139.6956
475.27	139.4991
475.41	139.3419
475.56	139.1422
475.71	138.9300
475.85	138.6672
476.00	138.3194
476.14	138.0402
476.29	137.7490
476.43	137.4857
476.58	137.2409
476.72	136.9111
476.87	136.5251
477.01	136.2611
477.16	135.9370
477.31	135.6108
477.45	135.2313
477.60	134.9440
477.74	134.5893
477.89	134.1754
478.03	133.8789
478.18	133.5469
478.32	133.2526
478.47	132.9264
478.61	132.5826
478.76	132.2195
478.90	131.8894
479.05	131.7043
479.19	131.5630
479.34	131.4932
479.48	131.4291
479.63	131.2320
479.77	130.8959
479.92	130.4641
480.06	130.0571
480.21	129.6261
480.35	129.2485
480.50	128.8549
480.64	128.3607
480.79	127.7711
480.93	127.1204
481.08	126.4587
481.22	125.8399
481.37	125.4566
481.51	125.1663
481.66	124.8899
481.80	124.6288
481.94	124.3548
482.09	124.0556
482.23	123.7314
482.38	123.4822
482.52	123.1514
482.67	122.8233
482.81	122.4948
482.96	122.1943
483.10	121.9115
483.25	121.5560
483.39	121.2285
483.53	120.9131
483.68	120.6015
483.82	120.2629
483.97	119.8540
484.11	119.4929
484.26	119.1069
484.40	118.7543
484.55	118.3783
484.69	117.9876
484.83	117.6298
484.98	117.2686
485.12	116.9456
485.27	116.6188
485.41	116.2507
485.55	115.9444
485.70	115.6116
485.84	115.2900
485.99	114.9268
486.13	114.5896
486.27	114.2736
486.42	113.9505
486.56	113.6745
486.71	113.3664
486.85	113.0307
486.99	112.7044
487.14	112.3640
487.28	111.9975
487.43	111.6463
487.57	111.2931
487.71	110.9186
487.86	110.5502
488.00	110.1579
488.15	109.7466
488.29	109.3657
488.43	108.9783
488.58	108.5894
488.72	108.1790
488.86	107.7319
489.01	107.3039
489.15	106.8659
489.29	106.4408
489.44	106.0150
489.58	105.5809
489.72	105.0949
489.87	104.6252
490.01	104.1572
490.16	103.6954
490.30	103.2527
490.44	102.8163
490.59	102.3852
490.73	101.9734
490.87	101.5498
491.02	101.1099
491.16	100.6688
491.30	100.2465
491.45	99.8423
491.59	99.3975
491.73	98.9526
491.88	98.5135
492.02	98.1267
492.16	97.7485
492.30	97.3776
492.45	96.9957
492.59	96.6305
492.73	96.2619
492.88	95.8745
493.02	95.4707
493.16	95.0534
493.31	94.6197
493.45	94.2329
493.59	93.8504
493.73	93.4580
493.88	93.0819
494.02	92.7143
494.16	92.3543
494.31	91.9538
494.45	91.5522
494.59	91.1451
494.73	90.7242
494.88	90.3133
495.02	89.9004
495.16	89.4641
495.31	89.0302
495.45	88.6091
495.59	88.2134
495.73	87.7983
495.88	87.3731
496.02	86.9382
496.16	86.4827
496.30	86.0303
496.45	85.5762
496.59	85.0931
496.73	84.6325
496.87	84.1832
497.02	83.7163
497.16	83.2615
497.30	82.8043
497.44	82.3308
497.59	81.8746
497.73	81.4187
497.87	80.9455
498.01	80.4857
498.16	80.0350
498.30	79.5897
498.44	79.1769
498.58	78.7464
498.72	78.2900
498.87	77.8558
499.01	77.4161
499.15	76.9722
499.29	76.5423
499.43	76.0938
499.58	75.6334
499.72	75.1828
499.86	74.7076
500.18	73.5922
500.39	72.8529
500.60	72.1499
500.80	71.3783
501.01	70.6858
501.22	70.0212
501.43	69.2928
501.64	68.5622
501.84	67.8873
502.05	67.2646
502.26	66.6847
502.47	66.0383
502.67	65.4103
502.88	64.7180
503.09	64.1111
503.30	63.4870
503.50	62.8531
503.71	62.2075
503.92	61.6486
504.13	61.0024
504.33	60.3195
504.54	59.6790
504.75	59.0219
504.96	58.3707
505.16	57.7597
505.37	57.1514
505.58	56.5367
505.79	55.9158
505.99	55.3321
506.20	54.7099
506.41	54.1232
506.62	53.5764
506.82	53.0074
507.03	52.5049
507.24	51.9854
507.45	51.4692
507.65	50.9067
507.86	50.3692
508.07	49.8108
508.28	49.3157
508.48	48.7920
508.69	48.2666
508.90	47.7901
509.10	47.2467
509.31	46.7379
509.52	46.1658
509.73	45.6232
509.93	45.1404
510.14	44.6611
510.35	44.1683
510.56	43.6729
510.76	43.2103
510.97	42.7119
511.18	42.2217
511.38	41.7582
511.59	41.2791
511.80	40.8927
512.00	40.5118
512.21	40.0909
512.42	39.6190
512.63	39.2345
512.83	38.8037
513.04	38.3737
513.25	37.9953
513.45	37.5701
513.66	37.1548
513.87	36.7877
514.07	36.3369
514.28	35.9280
514.49	35.4956
514.70	35.1151
514.90	34.7099
515.11	34.3165
515.32	33.9322
515.52	33.5096
515.73	33.1448
515.94	32.7990
516.14	32.3931
516.35	32.0013
516.56	31.6093
516.76	31.2630
516.97	30.9121
517.18	30.5464
517.38	30.2268
517.59	29.8677
517.80	29.5723
518.00	29.2118
518.21	28.8686
518.42	28.5393
518.62	28.2722
518.83	27.9527
519.04	27.6532
519.24	27.3372
519.45	27.0267
519.66	26.6975
519.86	26.4348
520.07	26.1522
520.28	25.8609
520.48	25.5773
520.69	25.2906
520.90	24.9961
521.10	24.6961
521.31	24.4183
521.52	24.1381
521.72	23.8945
521.93	23.5965
522.14	23.2988
522.34	22.9975
522.55	22.7362
522.76	22.4796
522.96	22.2400
523.17	21.9966
523.38	21.7781
523.58	21.5041
523.79	21.2385
523.99	20.9731
524.20	20.7471
524.41	20.5025
524.61	20.3114
524.82	20.0945
525.03	19.8655
525.23	19.6332
525.44	19.3911
525.64	19.1905
525.85	18.9768
526.06	18.7968
526.26	18.5878
526.47	18.4034
526.68	18.2236
526.88	17.9869
527.09	17.7576
527.29	17.5689
527.50	17.3800
527.71	17.2055
527.91	16.9854
528.12	16.7807
528.32	16.5968
528.53	16.4136
528.74	16.2140
528.94	16.0397
529.15	15.8797
529.36	15.7071
529.56	15.5377
529.77	15.3654
529.97	15.1828
530.18	15.0046
530.39	14.8622
530.59	14.6646
530.80	14.4975
531.00	14.3198
531.21	14.1502
531.41	13.9723
531.62	13.8256
531.83	13.6434
532.03	13.4691
532.24	13.3364
532.44	13.1802
532.65	13.0169
532.86	12.8689
533.06	12.7088
533.27	12.5718
533.47	12.4327
533.68	12.2706
533.88	12.1401
534.09	11.9848
534.30	11.8648
534.50	11.7264
534.71	11.5904
534.91	11.4434
535.12	11.3080
535.32	11.1996
535.53	11.0823
535.74	10.9158
535.94	10.8006
536.15	10.6667
536.35	10.5559
536.56	10.4526
536.76	10.3192
536.97	10.2150
537.17	10.1089
537.38	10.0150
537.59	9.9094
537.79	9.8004
538.00	9.7160
538.20	9.6348
538.41	9.5238
538.61	9.4356
538.82	9.3138
539.02	9.2146
539.23	9.1287
539.44	9.0271
539.64	8.9351
539.85	8.8385
540.05	8.7598
540.26	8.6831
540.46	8.5825
540.67	8.5140
540.87	8.4129
541.08	8.3246
541.28	8.2255
541.49	8.1350
541.69	8.0774
541.90	7.9747
542.10	7.9021
542.31	7.8369
542.51	7.7759
542.72	7.7094
542.93	7.6369
543.13	7.5897
543.34	7.5478
543.54	7.5044
543.75	7.4545
543.95	7.4058
544.16	7.3595
544.36	7.2989
544.57	7.2362
544.77	7.1640
544.98	7.1368
545.18	7.1117
545.39	7.0410
545.59	6.9778
545.80	6.9457
546.00	6.8852
546.21	6.8389
546.41	6.8290
546.62	6.7843
546.82	6.7395
547.03	6.7218
547.23	6.6810
547.44	6.6186
547.64	6.6019
547.85	6.5809
548.05	6.5570
548.26	6.5331
548.46	6.5099
548.67	6.4751
548.87	6.4754
549.08	6.4650
549.28	6.4251
549.48	6.3797
549.69	6.3654
549.89	6.3582
550.10	6.3496
550.30	6.3332
550.51	6.3247
550.71	6.3029
550.92	6.3023
551.12	6.2753
551.33	6.2782
551.53	6.2953
551.74	6.3234
551.94	6.3253
552.15	6.3286
552.35	6.3223
552.55	6.3245
552.76	6.3372
552.96	6.3635
553.17	6.3873
553.37	6.4000
553.58	6.3871
553.78	6.3985
553.99	6.4111
554.19	6.4354
554.40	6.4438
554.60	6.4638
554.80	6.4938
555.01	6.4983
555.21	6.5165
555.42	6.5293
555.62	6.5777
555.83	6.6571
556.03	6.6909
556.24	6.7146
556.44	6.7467
556.64	6.7915
556.85	6.8338
557.05	6.8759
557.26	6.9491
557.46	7.0075
557.67	7.0439
557.87	7.0724
558.07	7.0881
558.28	7.1488
558.48	7.2243
558.69	7.2910
558.89	7.3543
559.10	7.4272
559.30	7.4907
559.50	7.5312
559.71	7.5832
559.91	7.6769
560.12	7.7893
560.32	7.8864
560.52	7.9795
560.73	8.0497
560.93	8.1529
561.14	8.2517
561.34	8.3422
561.54	8.4516
561.75	8.5880
561.95	8.7145
562.16	8.8314
562.36	8.9400
562.56	9.0706
562.77	9.1954
562.97	9.3478
563.18	9.4819
563.38	9.6345
563.58	9.7929
563.79	9.9578
563.99	10.1292
564.20	10.3127
564.40	10.4887
564.60	10.6730
564.81	10.8648
565.01	11.0357
565.21	11.2531
565.42	11.4567
565.62	11.6589
565.83	11.8856
566.03	12.1262
566.23	12.3559
566.44	12.5844
566.64	12.8033
566.84	13.0401
567.05	13.2969
567.25	13.5628
567.46	13.8177
567.66	14.0989
567.86	14.3980
568.07	14.6919
568.27	14.9960
568.47	15.3039
568.68	15.6150
568.88	15.9525
569.08	16.2995
569.29	16.6290
569.49	16.9915
569.69	17.3520
569.90	17.7276
570.10	18.1193
570.30	18.5020
570.51	18.8746
570.71	19.2794
570.92	19.6727
571.12	20.1077
571.32	20.5339
571.53	20.9695
571.73	21.4089
571.93	21.8633
572.14	22.3423
572.34	22.8136
572.54	23.2782
572.75	23.7990
572.95	24.3295
573.15	24.8700
573.36	25.4079
573.56	25.9835
573.76	26.5582
573.97	27.1780
574.17	27.7528
574.37	28.3523
574.57	28.9568
574.78	29.6084
574.98	30.1967
575.18	30.8612
575.39	31.5018
575.59	32.1841
575.79	32.8253
576.00	33.5063
576.20	34.1887
576.40	34.9171
576.61	35.6058
576.81	36.3347
577.01	37.1038
577.21	37.8915
577.42	38.6560
577.62	39.4629
577.82	40.2686
578.03	41.1509
578.23	41.9903
578.43	42.8179
578.64	43.7028
578.84	44.5905
579.04	45.5062
579.24	46.4111
579.45	47.3250
579.65	48.2303
579.85	49.2317
580.06	50.2393
580.26	51.1534
580.46	52.1348
580.66	53.1687
580.87	54.1635
581.07	55.2178
581.27	56.2654
581.48	57.3377
581.68	58.4659
581.88	59.5803
582.08	60.6524
582.29	61.7466
582.49	62.8821
582.69	63.9964
582.89	65.1417
583.10	66.3159
583.30	67.4831
583.50	68.6880
583.70	69.9171
583.91	71.0689
584.11	72.2679
584.31	73.4950
584.51	74.6952
584.72	75.9641
584.92	77.2788
585.12	78.5290
585.32	79.8364
585.53	81.0847
585.73	82.3973
585.93	83.6784
586.13	85.0893
586.34	86.4556
586.54	87.9520
586.74	89.4322
586.94	90.9029
587.15	92.3401
587.35	93.8299
587.55	95.2913
587.75	96.8210
587.96	98.3343
588.16	99.8870
588.36	101.4419
588.56	103.0146
588.77	104.4782
588.97	106.0627
589.17	107.6900
589.37	109.3443
589.57	111.0231
589.78	112.7311
589.98	114.4645
590.18	116.0896
590.38	117.7645
590.59	119.3533
590.79	120.9962
590.99	122.6853
591.19	124.3088
591.39	125.8625
591.60	127.4457
591.80	128.9893
592.00	130.5683
592.20	132.1499
592.40	133.8539
592.61	135.5341
592.81	137.2920
593.01	139.0169
593.21	140.7570
593.41	142.5043
593.62	144.4050
593.82	146.1897
594.02	147.9594
594.22	149.8155
594.42	151.6737
594.63	153.5146
594.83	155.3773
595.03	157.1301
595.23	158.8532
595.43	160.6147
595.63	162.4772
595.84	164.3259
596.04	166.3087
596.24	168.2932
596.44	170.2350
596.64	172.1486
596.84	174.0889
597.05	175.9481
597.25	177.9521
597.45	179.9793
597.65	182.0105
597.85	183.9092
598.06	185.7249
598.26	187.6446
598.46	189.6017
598.66	191.5000
598.86	193.3506
599.06	195.1693
599.26	197.0096
599.47	198.9929
599.67	200.8557
599.87	202.7120
600.07	204.5013
600.27	206.3676
600.47	208.0659
600.68	209.6824
600.88	211.3297
601.08	213.1065
601.28	214.9052
601.48	216.6783
601.68	218.3959
601.88	220.1565
602.09	221.7734
602.29	223.6398
602.49	225.2711
602.69	227.0403
602.89	228.7829
603.09	230.5616
603.29	232.0622
603.49	233.7046
603.70	235.3359
603.90	236.8283
604.10	238.3348
604.30	239.8593
604.50	241.2292
604.70	242.6623
604.90	243.9039
605.10	245.2004
605.31	246.3231
605.51	247.6887
605.71	249.0248
605.91	250.4567
606.11	252.0213
606.31	253.5222
606.51	254.9863
606.71	256.4752
606.91	257.8391
607.12	259.4430
607.32	261.0172
607.52	262.6315
607.72	264.2264
607.92	265.5108
608.12	266.8621
608.32	268.1320
608.52	269.6442
608.72	271.1163
608.92	272.5778
609.13	274.2040
609.33	275.6955
609.53	277.2773
609.73	278.8012
609.93	280.1880
610.13	281.8567
610.33	283.3929
610.53	284.6782
610.73	285.7366
610.93	286.8730
611.13	288.1254
611.33	289.2207
611.54	290.3586
611.74	291.5298
611.94	292.8210
612.14	294.0975
612.34	295.2912
612.54	296.4594
612.74	298.1178
612.94	299.5557
613.14	300.8019
613.34	302.1310
613.54	303.5103
613.74	304.7011
613.94	305.8968
614.14	307.1888
614.34	308.5318
614.54	309.7686
614.75	310.9262
614.95	311.9251
615.15	313.2983
615.35	314.7117
615.55	315.8325
615.75	317.0569
615.95	318.4086
616.15	319.3418
616.35	320.2621
616.55	321.2971
616.75	322.3812
616.95	323.4476
617.15	324.6097
617.35	325.4617
617.55	326.3510
617.75	327.1269
617.95	327.9335
618.15	328.8450
618.35	330.0213
618.55	331.1967
618.75	332.1113
618.95	332.9219
619.15	333.8365
619.35	334.6644
619.55	335.7087
619.75	336.7159
619.95	337.9460
620.15	338.9193
620.35	339.7903
620.55	340.6293
620.75	341.6753
620.95	342.8274
621.15	343.9263
621.36	344.8863
621.56	345.7177
621.76	346.4062
621.96	347.1766
622.16	348.0105
622.36	349.1581
622.56	350.0543
622.76	351.1721
622.96	351.9407
623.16	352.3642
623.36	353.0436
623.56	353.7560
623.76	354.5259
623.95	355.3892
624.15	356.3226
624.35	356.9479
624.55	357.6964
624.75	358.4265
624.95	358.8672
625.15	359.2641
625.35	360.0436
625.55	360.8629
625.75	361.7930
625.95	362.5622
626.15	363.3216
626.35	364.1800
626.55	364.9802
626.75	365.4626
626.95	366.3127
627.15	367.2236
627.35	368.2614
627.55	369.0797
627.75	369.8132
627.95	370.4691
628.15	371.0064
628.35	371.3366
628.55	371.6877
628.75	372.3719
628.95	372.9939
629.15	373.2649
629.35	373.7895
629.55	374.3118
629.75	374.6645
629.95	375.0337
630.15	375.4449
630.34	376.1458
630.54	376.7916
630.74	377.0715
630.94	377.2995
631.14	377.6170
631.34	377.9852
631.54	378.1028
631.74	378.1965
631.94	378.5134
632.14	378.7217
632.34	378.5879
632.54	378.3098
632.74	378.4167
632.94	378.5356
633.14	378.5735
633.33	378.4326
633.53	378.3990
633.73	378.1254
633.93	377.7727
634.13	377.5785
634.33	377.2775
634.53	377.0573
634.73	376.9244
634.93	376.7285
635.13	376.4419
635.33	376.0829
635.53	375.9925
635.72	375.7644
635.92	375.9366
636.12	375.9916
636.32	375.9611
636.52	375.8340
636.72	375.9099
636.92	375.7874
637.12	375.7315
637.32	375.8046
637.52	375.9155
637.71	375.6533
637.91	375.6006
638.11	375.4808
638.31	375.6140
638.51	375.3460
638.71	375.5142
638.91	375.6126
639.11	375.8047
639.31	375.8228
639.50	375.5320
639.70	375.5550
639.90	375.8011
640.10	375.8167
640.30	375.8366
640.50	375.5694
640.70	375.8476
640.90	375.7955
641.09	375.7419
641.29	375.5610
641.49	375.1814
641.69	374.9620
641.89	374.3492
642.09	373.8010
642.29	373.5879
642.49	373.3186
642.68	372.8488
642.88	372.2667
643.08	371.5885
643.28	370.8143
643.48	370.2328
643.68	370.1272
643.88	369.9770
644.07	369.6740
644.27	369.4130
644.47	369.0226
644.67	368.4109
644.87	368.2919
645.07	368.0883
645.26	367.9145
645.46	367.5689
645.66	367.2502
645.86	366.2749
646.06	365.5610
646.26	364.9908
646.46	364.0514
646.65	363.4997
646.85	362.6564
647.05	361.6300
647.25	360.3397
647.45	359.1482
647.64	358.4378
647.84	357.4395
648.04	356.6283
648.24	355.7503
648.44	355.0030
648.64	354.4415
648.83	353.5556
649.03	352.8616
649.23	351.9909
649.43	351.3513
649.63	350.8518
649.82	349.9390
650.02	349.3463
650.22	348.8108
650.42	348.2785
650.62	347.5951
650.81	346.7222
651.01	345.6386
651.21	344.7900
651.41	344.2018
651.61	343.5306
651.80	342.4937
652.00	341.5468
652.20	340.1771
652.40	339.1947
652.60	338.0324
652.79	337.0766
652.99	336.3386
653.19	335.7010
653.39	334.8828
653.59	334.0652
653.78	333.3737
653.98	332.6921
654.18	332.2909
654.38	332.0532
654.57	331.1830
654.77	330.5705
654.97	329.8688
655.17	329.0434
655.37	328.2815
655.56	327.2147
655.76	326.2867
655.96	325.3173
656.16	324.3286
656.35	323.2916
656.55	322.0055
656.75	321.0539
656.95	319.9861
657.14	319.0774
657.34	318.1973
657.54	317.0145
657.74	316.3014
657.93	315.0680
658.13	313.7178
658.33	312.5782
658.53	311.1976
658.72	310.3137
658.92	309.1672
659.12	307.9024
659.32	306.3400
659.51	304.9614
659.71	303.9089
659.91	302.5785
660.11	301.5341
660.30	300.5359
660.50	299.4408
660.70	298.3562
660.90	297.0723
661.09	295.9335
661.29	294.7732
661.49	293.6659
661.68	292.4744
661.88	290.9405
662.08	289.7440
662.28	288.2652
662.47	286.8648
662.67	285.2822
662.87	283.7531
663.07	282.4304
663.26	280.9033
663.46	279.5687
663.66	278.1215
663.85	276.6673
664.05	275.4731
664.25	274.0567
664.44	272.6413
664.64	271.0166
664.84	269.5969
665.04	268.1251
665.23	266.5495
665.43	265.1537
665.63	263.6788
665.82	262.3732
666.02	260.7626
666.22	259.0022
666.41	257.3020
666.61	255.9956
666.81	254.8143
667.01	253.5041
667.20	252.2800
667.40	250.9793
667.60	249.6254
667.79	248.2459
667.99	246.8080
668.19	245.6477
668.38	244.6343
668.58	243.5166
668.78	242.2056
668.97	240.8744
669.17	239.4737
669.37	237.9825
669.56	236.4019
669.76	235.0243
669.96	233.6785
670.15	232.2980
670.35	230.8885
670.55	229.4518
670.74	228.0063
670.94	226.6543
671.14	225.1647
671.33	223.8549
671.53	222.6064
671.73	221.3897
671.92	219.9653
672.12	218.3644
672.32	216.8700
672.51	215.3605
672.71	213.8552
672.90	212.7252
673.10	211.1109
673.30	209.7193
673.49	208.3042
673.69	206.7132
673.89	205.2424
674.08	203.8307
674.28	202.6804
674.48	201.1940
674.67	199.7684
674.87	198.2430
675.06	196.6684
675.26	195.4482
675.46	194.2364
675.65	192.9979
675.85	192.1041
676.05	191.1193
676.24	190.0536
676.44	189.0660
676.63	188.2480
676.83	187.4711
677.03	186.7704
677.22	185.7532
677.42	184.7012
677.62	183.4329
677.81	182.3058
678.01	180.9996
678.20	179.7499
678.40	178.6325
678.60	177.2813
678.79	175.8766
678.99	174.4075
679.18	172.9884
679.38	171.7093
679.58	170.4934
679.77	169.4406
679.97	168.2860
680.16	167.1204
680.36	166.0401
680.55	164.8282
680.75	163.6998
680.95	162.6353
681.14	161.6152
681.34	160.6400
681.53	159.7024
681.73	158.6075
681.93	157.7172
682.12	156.8480
682.32	155.8874
682.51	154.8917
682.71	154.0814
682.90	153.1700
683.10	152.3176
683.30	151.5855
683.49	150.6658
683.69	149.6360
683.88	148.7284
684.08	147.6341
684.27	146.5829
684.47	145.6173
684.67	144.6882
684.86	143.7156
685.06	142.8914
685.25	142.0364
685.45	141.0003
685.64	140.2503
685.84	139.6151
686.03	138.8775
686.23	138.1775
686.42	137.4220
686.62	136.7053
686.82	135.9659
687.01	135.2128
687.21	134.4905
687.40	133.9193
687.60	133.3897
687.79	132.6185
687.99	131.8990
688.18	131.2711
688.38	130.6332
688.57	129.9175
688.77	129.3276
688.96	128.7588
689.16	128.2503
689.35	127.7688
689.55	127.1453
689.75	126.4948
689.94	125.9094
690.14	125.3331
690.33	124.7995
690.53	124.2705
690.72	123.9160
690.92	123.5488
691.11	123.0661
691.31	122.6006
691.50	122.0041
691.70	121.5816
691.89	121.3014
692.09	121.0811
692.28	120.7149
692.48	120.4148
692.67	120.1749
692.87	119.9495
693.06	119.7548
693.26	119.6616
693.45	119.4687
693.65	119.3748
693.84	119.2068
694.04	118.9820
694.23	118.6979
694.43	118.5164
694.62	118.2606
694.82	118.0696
695.01	117.8188
695.20	117.5150
695.40	117.2455
695.59	117.1581
695.79	116.9784
695.98	116.6276
696.18	116.4413
696.37	116.2632
696.57	115.9742
696.76	115.7422
696.96	115.4219
697.15	115.1183
697.35	114.8359
697.54	114.4310
697.74	113.9420
697.93	113.5988
698.12	113.4269
698.32	113.1918
698.51	112.9612
698.71	112.8828
698.90	112.8307
699.10	112.6912
699.29	112.6213
699.49	112.5210
699.68	112.5012
699.88	112.4654
700.07	112.4599
700.26	112.4720
700.46	112.3912
700.65	112.4174
700.85	112.3181
701.04	112.2110
701.24	112.2240
701.43	112.1705
701.62	112.1559
701.82	112.2113
702.01	112.3353
702.21	112.2588
702.40	112.2566
702.60	112.3834
702.79	112.4805
702.98	112.4843
703.18	112.5907
703.37	112.6196
703.57	112.6146
703.76	112.7088
703.96	112.7423
704.15	112.8452
704.34	113.1130
704.54	113.2230
704.73	113.2696
704.93	113.2850
705.12	113.5100
705.31	113.6602
705.51	113.9083
705.70	114.1914
705.90	114.3431
706.09	114.5864
706.28	114.7108
706.48	114.8300
706.67	114.9881
706.87	115.0638
707.06	115.2684
707.25	115.3284
707.45	115.2163
707.64	115.2275
707.84	115.2947
708.03	115.3785
708.22	115.3776
708.42	115.4359
708.61	115.5019
708.80	115.6815
709.00	115.7203
709.19	115.6765
709.39	115.7428
709.58	115.7704
709.77	115.8051
709.97	115.8222
710.16	115.8723
710.35	115.9075
710.55	115.8939
710.74	115.8097
710.93	115.5427
711.13	115.5965
711.32	115.6404
711.52	115.7395
711.71	115.9204
711.90	115.9664
712.10	116.0660
712.29	116.0845
712.48	116.1462
712.68	116.2648
712.87	116.2484
713.06	116.3925
713.26	116.3254
713.45	116.3531
713.64	116.3031
713.84	116.2934
714.03	116.2601
714.22	116.1425
714.42	116.1063
714.61	116.1742
714.80	116.0841
715.00	116.1934
715.19	116.1604
715.38	116.2113
715.58	116.2915
715.77	116.3989
715.96	116.6238
716.16	116.8318
716.35	117.0704
716.54	117.2755
716.74	117.3458
716.93	117.6032
717.12	117.8285
717.32	118.1473
717.51	118.3807
717.70	118.4247
717.89	118.4728
718.09	118.3688
718.28	118.3635
718.47	118.4658
718.67	118.5040
718.86	118.6401
719.05	118.6506
719.25	118.6397
719.44	118.6951
719.63	118.7607
719.82	118.7658
720.02	118.9601
720.21	119.1591
720.40	119.2163
720.60	119.2467
720.79	119.4382
720.98	119.5240
721.17	119.6530
721.37	119.6410
721.56	119.5909
721.75	119.6538
721.95	119.8582
722.14	119.7783
722.33	119.7974
722.52	119.8948
722.72	119.8241
722.91	119.7215
723.10	119.7050
723.29	119.6953
723.49	119.7691
723.68	119.8587
723.87	119.9516
724.06	119.9531
724.26	120.2835
724.45	120.4939
724.64	120.7510
724.84	121.1282
725.03	121.3273
725.22	121.3865
725.41	121.5516
725.61	121.7525
725.80	121.8648
725.99	121.8447
726.18	121.8889
726.37	121.9000
726.57	121.8725
726.76	121.7766
726.95	121.5512
727.14	121.4454
727.34	121.4659
727.53	121.2149
727.72	121.0116
727.91	120.8621
728.11	120.6944
728.30	120.7170
728.49	120.5289
728.68	120.4311
728.87	120.2976
729.07	120.3738
729.26	120.3552
729.45	120.2259
729.64	120.1758
729.84	120.2181
730.03	120.3112
730.22	120.4419
730.41	120.3185
730.60	120.2804
730.80	120.2481
730.99	120.2916
731.18	120.1850
731.37	120.2621
731.56	120.3785
731.76	120.6434
731.95	120.7895
732.14	120.9114
732.33	121.0388
732.52	121.3377
732.72	121.6127
732.91	121.8865
733.10	122.1054
733.29	122.3018
733.48	122.3212
733.68	122.3753
733.87	122.4586
734.06	122.5238
734.25	122.6154
734.44	122.7115
734.63	122.8155
734.83	122.7822
735.02	122.8364
735.21	122.9039
735.40	123.0988
735.59	123.3671
735.78	123.5714
735.98	123.6307
736.17	123.7892
736.36	123.9254
736.55	124.1241
736.74	124.3298
736.93	124.5359
737.13	124.7357
737.32	124.9016
737.51	124.9722
737.70	125.2158
737.89	125.6567
738.08	126.0292
738.28	126.3514
738.47	126.6304
738.66	126.7460
738.85	126.7442
739.04	127.0163
739.23	127.2264
739.42	127.6313
739.62	127.8457
739.81	127.8427
740.00	127.7855
740.19	127.8593
740.38	128.0132
740.57	128.1124
740.76	128.3707
740.95	128.6896
741.15	128.8500
741.34	129.0280
741.53	129.0981
741.72	129.2758
741.91	129.6180
742.10	129.8306
742.29	130.1752
742.48	130.3833
742.68	130.6574
742.87	131.0438
743.06	131.2393
743.25	131.4407
743.44	131.6857
743.63	132.0086
743.82	132.3477
744.01	132.5955
744.20	132.9016
744.39	133.1967
744.59	133.5521
744.78	133.8729
744.97	134.0900
745.16	134.4324
745.35	134.6724
745.54	134.7939
745.73	134.9341
745.92	135.2033
746.11	135.5094
746.30	135.8542
746.49	136.0052
746.69	136.1262
746.88	136.3941
747.07	136.6493
747.26	136.7542
747.45	136.9604
747.64	137.3267
747.83	137.5336
748.02	137.7716
748.21	137.9466
748.40	137.9510
748.59	138.0545
748.78	138.1384
748.97	138.4052
749.16	138.6363
749.36	139.1000
749.55	139.6842
749.74	140.0274
749.93	140.3869
750.12	140.6524
750.31	141.0491
750.50	141.6827
750.69	142.2571
750.88	142.9397
751.07	143.3238
751.26	143.8289
751.45	144.2145
751.64	144.5666
751.83	145.0966
752.02	145.6638
752.21	146.2283
752.40	146.6373
752.59	147.1288
752.78	147.7320
752.97	148.3168
753.16	148.7661
753.35	149.4424
753.54	150.0670
753.73	150.5559
753.93	151.0406
754.12	151.4509
754.31	151.8046
754.50	152.2998
754.69	152.6932
754.88	153.0348
755.07	153.3035
755.26	153.7875
755.45	154.0734
755.64	154.3909
755.83	154.6752
756.02	154.8763
756.21	155.2664
756.40	155.8510
756.59	156.3169
756.78	156.7972
756.97	157.2814
757.16	157.8411
757.35	158.2338
757.54	158.7285
757.73	159.2630
757.92	159.8956
758.11	160.7475
758.30	161.5076
758.49	162.1882
758.68	162.7042
758.87	163.2548
759.06	163.5148
759.25	164.0463
759.44	164.8245
759.63	165.4149
759.81	166.1621
760.00	166.6508
760.19	167.0146
760.38	167.2879
760.57	167.6397
760.76	168.1650
760.95	168.6844
761.14	169.4377
761.33	169.8182
761.52	169.9826
761.71	170.0828
761.90	170.2864
762.09	170.6925
762.28	171.0937
762.47	171.6030
762.66	172.0324
762.85	172.5570
763.04	172.9967
763.23	173.5860
763.42	174.0919
763.61	174.6697
763.80	175.3241
763.99	175.6830
764.18	176.1019
764.36	176.6028
764.55	176.9904
764.74	177.4129
764.93	177.7330
765.12	178.0884
765.31	178.3699
765.50	178.7419
765.69	179.0995
765.88	179.5871
766.07	180.3255
766.26	181.0408
766.45	181.5454
766.64	182.1718
766.83	182.7842
767.01	183.5608
767.20	184.3692
767.39	185.1109
767.58	185.9909
767.77	186.9763
767.96	187.6571
768.15	188.0256
768.34	188.4853
768.53	189.1773
768.72	189.9521
768.91	190.9227
769.09	191.5564
769.28	192.1485
769.47	192.6148
769.66	193.0959
769.85	193.6277
770.04	194.2412
770.23	194.9241
770.42	195.8527
770.61	196.5456
770.79	197.0080
770.98	197.3632
771.17	197.9246
771.36	198.4147
771.55	199.1376
771.74	199.8445
771.93	200.4438
772.12	201.1570
772.30	201.7248
772.49	202.0930
772.68	202.7537
772.87	203.5518
773.06	204.1064
773.25	204.6004
773.44	205.1459
773.63	205.5804
773.81	205.6283
774.00	205.8589
774.19	205.7803
774.38	206.1509
774.57	206.3630
774.76	206.6093
774.95	206.5773
775.13	207.0163
775.32	207.6362
775.51	208.0858
775.70	208.6332
775.89	209.6527
776.08	210.5567
776.26	211.6016
776.45	212.4809
776.64	213.2393
776.83	213.6157
777.02	214.1144
777.21	214.6832
777.39	214.8359
777.58	215.5580
777.77	216.1062
777.96	216.4959
778.15	216.7772
778.34	216.9547
778.52	217.3747
778.71	217.7004
778.90	218.0800
779.09	218.8759
779.28	219.0220
779.47	219.4840
779.65	219.5257
779.84	219.8112
780.03	220.2383
780.22	220.4151
780.41	221.0755
780.59	221.2707
780.78	221.7375
780.97	222.2897
781.16	222.9886
781.35	223.7203
781.53	224.1298
781.72	224.4197
781.91	225.0173
782.10	225.0948
782.29	225.5188
782.47	225.7949
782.66	226.2460
782.85	226.4110
783.04	227.1017
783.22	227.1892
783.41	227.1992
783.60	227.4514
783.79	227.9442
783.98	228.2452
784.16	228.9972
784.35	229.8371
784.54	230.4837
784.73	230.9164
784.91	231.8005
785.10	232.1277
785.29	232.8743
785.48	233.3064
785.67	234.2429
785.85	234.8932
786.04	235.4790
786.23	235.8626
786.42	235.8053
786.60	235.9161
786.79	236.5930
786.98	236.3684
787.17	236.5670
787.35	236.3461
787.54	236.4483
787.73	236.4158
787.92	236.3037
788.10	236.2921
788.29	236.4645
788.48	236.1074
788.67	236.1537
788.85	236.4489
789.04	237.0511
789.23	237.4725
789.41	237.5865
789.60	237.8031
789.79	237.8892
789.98	238.2108
790.16	238.6474
790.35	238.8413
790.54	239.6698
790.73	240.0314
790.91	239.8288
791.10	240.1068
791.29	240.2599
791.47	240.7914
791.66	241.3753
791.85	241.8803
792.04	242.6089
792.22	242.7161
792.41	243.1462
792.60	243.7715
792.78	244.3499
792.97	245.0337
793.16	245.1033
793.34	245.1115
793.53	245.3191
793.72	245.8103
793.91	246.1317
794.09	246.4509
794.28	247.1540
794.47	247.5379
794.65	247.5966
794.84	247.5491
795.03	247.3696
795.21	248.0016
795.40	248.5716
795.59	248.9496
795.77	249.3866
795.96	249.7904
796.15	249.7197
796.33	249.6020
796.52	249.3048
796.71	249.2030
796.89	249.5321
797.08	249.6089
797.27	249.6936
797.45	249.5730
797.64	249.4632
797.83	249.1165
798.01	248.8547
798.20	248.9407
798.39	249.0375
798.57	249.5162
798.76	249.9220
798.95	249.9910
799.13	250.1992
799.32	250.2375
799.51	250.2361
799.69	250.6324
799.88	250.6952
800.06	250.8970
800.25	250.6645
800.44	250.7775
800.62	250.4363
800.81	250.0809
801.00	250.1446
801.18	250.3778
801.37	250.1237
801.56	250.3567
801.74	249.9226
801.93	249.9660
802.11	249.8583
802.30	250.1416
802.49	249.6479
802.67	249.9599
802.86	250.0279
803.05	250.0172
803.23	249.9838
803.42	250.0377
803.60	249.9903
803.79	250.1211
803.98	250.0462
804.16	249.6855
804.35	249.1221
804.53	249.1033
804.72	248.8223
804.91	248.7462
805.09	248.8977
805.28	248.7166
805.46	248.7949
805.65	249.4775
805.84	249.8568
806.02	250.1574
806.21	251.1955
806.39	251.8534
806.58	252.3546
806.76	252.3293
806.95	252.4384
807.14	252.1030
807.32	252.1570
807.51	251.7808
807.69	250.8495
807.88	250.6454
808.07	250.4445
808.25	250.0360
808.44	249.9396
808.62	250.0298
808.81	250.3181
808.99	250.5341
809.18	250.7224
809.36	250.9370
809.55	251.0505
809.74	250.7572
809.92	249.9997
810.11	249.7562
810.29	249.2161
810.48	248.5730
810.66	247.8989
810.85	246.9721
811.03	246.1024
811.22	245.4520
811.41	244.9329
811.59	244.6006
811.78	244.9477
811.96	245.4865
812.15	244.9358
812.33	244.9714
812.52	244.8165
812.70	244.7082
812.89	244.6161
813.07	244.8966
813.26	244.3794
813.44	244.1216
813.63	244.3638
813.81	243.8452
814.00	243.3773
814.19	243.4739
814.37	242.9189
814.56	242.7478
814.74	242.1794
814.93	242.2104
815.11	241.8105
815.30	242.0980
815.48	241.7401
815.67	241.1081
815.85	240.6398
816.04	240.6428
816.22	240.4907
816.41	240.5697
816.59	240.5637
816.78	240.7966
816.96	240.7750
817.15	240.8881
817.33	240.9086
817.52	241.0609
817.70	240.8866
817.89	241.4010
818.07	241.3215
818.26	241.0425
818.44	240.7108
818.62	240.5659
818.81	240.2910
818.99	240.2920
819.18	240.1355
819.36	239.4355
819.55	239.1430
819.73	239.0984
819.92	238.5230
820.10	237.8570
820.29	237.2697
820.47	236.4341
820.66	235.1548
820.84	233.9580
821.03	232.4158
821.21	230.6548
821.40	229.0087
821.58	227.3988
821.76	225.7617
821.95	224.0987
822.13	222.5927
822.32	221.0520
822.50	219.1956
822.69	216.4483
822.87	213.1643
823.06	209.1563
823.24	205.2309
823.42	200.9510
823.61	196.7311
823.79	192.5773
823.98	188.7870
824.16	185.1010
824.35	181.7670
824.53	179.3154
824.71	178.0672
824.90	177.8537
825.08	178.8224
825.27	180.9663
825.45	184.2460
825.64	188.3289
825.82	193.2515
826.00	197.5441
826.19	202.0059
826.37	206.5564
826.56	210.6633
826.74	214.4302
826.92	217.5987
827.11	220.2449
827.29	221.5538
827.48	222.1343
827.66	221.9805
827.84	221.0925
828.03	221.2417
828.21	221.5757
828.40	221.9570
828.58	222.2419
828.76	222.3561
828.95	222.6841
829.13	222.8913
829.32	223.2377
829.50	223.5986
829.68	223.8154
829.87	223.9683
830.05	224.4980
830.23	225.0078
830.42	225.2690
830.60	225.7689
830.79	226.2242
830.97	226.3991
831.15	226.6781
831.34	226.9849
831.52	227.2357
831.70	227.5591
831.89	227.8965
832.07	227.7071
832.26	227.4169
832.44	227.4374
832.62	227.2758
832.81	227.1534
832.99	227.1028
833.17	226.9571
833.36	226.6193
833.54	226.4204
833.72	225.9457
833.91	225.8488
834.09	225.6559
834.27	225.3207
834.46	225.1496
834.64	224.8503
834.82	224.5125
835.01	224.1321
835.19	223.7850
835.37	223.7618
835.56	223.7454
835.74	224.0918
835.92	224.0807
836.11	224.2165
836.29	224.3620
836.47	224.3553
836.66	224.5362
836.84	224.8691
837.02	225.2623
837.21	225.7041
837.39	225.9397
837.57	226.1206
837.76	226.0403
837.94	226.0350
838.12	226.0837
838.31	226.1112
838.49	226.1744
838.67	226.0272
838.85	225.7272
839.04	225.4743
839.22	224.9406
839.40	224.4737
839.59	223.9574
839.77	223.7418
839.95	223.3531
840.13	222.8945
840.32	222.7883
840.50	222.5325
840.68	222.1129
840.87	222.0111
841.05	221.6220
841.23	221.6648
841.41	221.5358
841.60	221.7193
841.78	221.5660
841.96	221.4411
842.15	221.3548
842.33	220.9731
842.51	220.8506
842.69	220.7993
842.88	220.4272
843.06	220.1957
843.24	220.0047
843.42	220.0104
843.61	219.6204
843.79	219.1499
843.97	219.0896
844.15	219.0513
844.34	219.0903
844.52	218.9384
844.70	219.0946
844.88	219.4584
845.07	219.8179
845.25	219.9049
845.43	220.0534
845.61	219.9351
845.80	220.1161
845.98	220.2575
846.16	220.1455
846.34	220.2253
846.53	220.0536
846.71	219.6012
846.89	219.2959
847.07	219.1398
847.25	219.2574
847.44	218.9458
847.62	218.7418
847.80	219.0982
847.98	219.0209
848.17	219.1578
848.35	219.3801
848.53	219.4856
848.71	220.2310
848.89	221.1169
849.08	221.5245
849.26	221.9293
849.44	222.0595
849.62	222.1371
849.80	221.9066
849.99	221.6015
850.17	221.3649
850.35	220.9815
850.53	220.8967
850.71	220.3290
850.90	219.2604
851.08	218.5834
851.26	218.0311
851.44	217.7569
851.62	218.1159
851.81	218.1935
851.99	218.0769
852.17	217.7913
852.35	217.7687
852.53	217.3173
852.71	216.6803
852.90	216.5602
853.08	216.7653
853.26	215.8844
853.44	215.4151
853.62	214.6557
853.81	214.2203
853.99	214.2443
854.17	213.8980
854.35	213.5468
854.53	213.4810
854.71	213.3461
854.89	213.2563
855.08	212.9691
855.26	213.4799
855.44	214.0764
855.62	214.1017
855.80	213.6027
855.98	213.7027
856.17	214.1391
856.35	213.7608
856.53	213.8699
856.71	213.9520
856.89	213.0815
857.07	212.7165
857.25	212.7521
857.43	212.7322
857.62	212.5294
857.80	212.1942
857.98	211.8524
858.16	212.0532
858.34	211.8689
858.52	211.9605
858.70	211.8434
858.88	212.6373
859.07	212.9288
859.25	212.6560
859.43	212.1112
859.61	212.2577
859.79	212.8673
859.97	212.7922
860.15	211.8085
860.33	211.7121
860.51	211.4137
860.70	211.3430
860.88	211.0099
861.06	210.3946
861.24	210.0484
861.42	209.5695
861.60	209.2331
861.78	208.4332
861.96	208.0942
862.14	208.1612
862.32	208.3018
862.51	208.2991
862.69	208.1260
862.87	208.0784
863.05	208.3045
863.23	208.5208
863.41	208.6595
863.59	208.8646
863.77	208.9851
863.95	208.6024
864.13	207.9531
864.31	207.7471
864.49	207.2815
864.67	206.8888
864.85	206.4829
865.04	205.9773
865.22	205.5804
865.40	205.3410
865.58	204.7565
865.76	204.6705
865.94	204.7362
866.12	205.0441
866.30	204.9171
866.48	204.8312
866.66	204.9330
866.84	205.1668
867.02	205.4462
867.20	204.9622
867.38	204.9826
867.56	205.1804
867.74	205.1716
867.92	205.0273
868.10	204.4628
868.28	204.5762
868.46	204.8315
868.64	205.0932
868.82	204.5151
869.00	204.7021
869.18	204.6908
869.37	204.4275
869.55	204.4796
869.73	204.3826
869.91	204.3780
870.09	205.0635
870.27	205.0215
870.45	204.8080
870.63	204.5294
870.81	204.5942
870.99	204.2181
871.17	204.5494
871.35	204.8080
871.53	204.8736
871.71	204.9834
871.89	205.3221
872.07	205.0675
872.25	204.8324
872.43	205.0008
872.61	204.7976
872.79	204.8044
872.97	204.7275
873.15	204.7083
873.33	204.3956
873.51	204.0599
873.69	203.9984
873.87	203.4974
874.04	203.3113
874.22	203.0127
874.40	202.5127
874.58	202.4677
874.76	202.2797
874.94	201.9235
875.12	201.3564
875.30	200.8765
875.48	200.6652
875.66	200.3622
875.84	200.0606
876.02	199.6690
876.20	199.4853
876.38	199.1484
876.56	198.7368
876.74	198.4507
876.92	198.1544
877.10	197.8352
877.28	197.7185
877.46	197.2670
877.64	196.9944
877.82	196.9389
878.00	197.1009
878.18	196.9564
878.35	196.7495
878.53	196.3271
878.71	195.9433
878.89	195.3316
879.07	194.6301
879.25	193.5910
879.43	192.4772
879.61	191.0766
879.79	189.6539
879.97	188.0945
880.15	186.6785
880.33	185.3599
880.51	184.4620
880.68	183.4645
880.86	182.6835
881.04	181.8605
881.22	181.1806
881.40	180.5275
881.58	179.9418
881.76	179.2713
881.94	178.6185
882.12	178.0548
882.30	177.4446
882.48	176.7411
882.65	176.1474
882.83	175.6101
883.01	175.1785
883.19	174.8915
883.37	174.6701
883.55	174.5421
883.73	174.6009
883.91	174.9554
884.09	175.3727
884.26	176.0022
884.44	176.7256
884.62	177.4434
884.80	178.1703
884.98	179.0375
885.16	179.8329
885.34	180.8460
885.52	181.7712
885.69	182.6206
885.87	183.1540
886.05	183.6174
886.23	183.9326
886.41	184.1211
886.59	184.6024
886.77	185.0354
886.94	185.3880
887.12	185.7176
887.30	185.7609
887.48	185.9704
887.66	186.2477
887.84	186.5204
888.02	186.8913
888.19	187.2543
888.37	187.5840
888.55	187.6873
888.73	187.8647
888.91	187.6691
889.09	187.4933
889.26	187.3262
889.44	187.0196
889.62	186.9202
889.80	186.8028
889.98	186.6262
890.16	186.4778
890.33	186.5156
890.51	186.4069
890.69	186.0122
890.87	186.0716
891.05	186.0461
891.22	185.9504
891.40	185.9756
891.58	185.6929
891.76	185.5403
891.94	185.3753
892.12	185.1420
892.29	184.7139
892.47	184.1697
892.65	183.7929
892.83	183.1250
893.01	182.4820
893.18	181.7903
893.36	181.1896
893.54	180.7530
893.72	180.4505
893.90	180.1234
894.07	179.8515
894.25	179.7401
894.43	179.7098
894.61	179.6634
894.78	179.6034
894.96	179.4094
895.14	179.1651
895.32	179.1236
895.50	178.9662
895.67	178.7566
895.85	178.4914
896.03	178.3259
896.21	178.2257
896.38	178.1082
896.56	177.9700
896.74	177.9606
896.92	178.0932
897.09	178.4100
897.27	178.4006
897.45	178.5006
897.63	178.6834
897.80	178.9523
897.98	179.0498
898.16	179.1693
898.34	179.2211
898.51	179.4032
898.69	179.6835
898.87	179.9199
899.05	180.1002
899.22	180.3293
899.40	180.7559
899.58	181.0700
899.76	181.3067
899.93	181.8015
900.11	182.1649
900.29	182.5506
900.47	182.8404
900.64	183.0694
900.82	183.1922
901.00	183.4272
901.17	183.5771
901.35	183.5324
901.53	183.4489
901.71	183.4993
901.88	183.2368
902.06	182.9927
902.24	182.5852
902.41	181.8163
902.59	181.2891
902.77	180.8367
902.94	180.1981
903.12	179.9033
903.30	179.3199
903.48	178.9566
903.65	178.6280
903.83	178.5269
904.01	178.3108
904.18	178.2839
904.36	178.5397
904.54	178.4856
904.71	178.6304
904.89	178.9733
905.07	179.1148
905.24	179.3796
905.42	179.3148
905.60	179.3216
905.77	179.1720
905.95	179.3159
906.13	179.3315
906.30	179.3335
906.48	179.5821
906.66	179.7402
906.83	179.7992
907.01	180.0122
907.19	180.2442
907.36	180.8791
907.54	181.3482
907.72	181.9960
907.89	182.3425
908.07	182.9169
908.25	183.4176
908.42	183.8259
908.60	184.0821
908.78	184.2733
908.95	184.3588
909.13	184.7079
909.31	184.7800
909.48	184.8504
909.66	185.1100
909.83	185.3468
910.01	185.5669
910.19	185.9623
910.36	185.7722
910.54	185.8489
910.72	185.9887
910.89	186.3551
911.07	186.1382
911.24	185.8770
911.42	185.8227
911.60	185.5647
911.77	185.3313
911.95	185.0682
912.13	184.5312
912.30	184.3568
912.48	184.0083
912.65	183.6172
912.83	183.0324
913.01	182.2787
913.18	181.8426
913.36	181.5638
913.53	181.2024
913.71	180.6332
913.89	180.0470
914.06	179.1691
914.24	178.2621
914.41	177.7345
914.59	177.1091
914.77	176.5794
914.94	176.1114
915.12	175.5338
915.29	174.8858
915.47	174.1893
915.64	173.7018
915.82	173.3124
916.00	173.2114
916.17	173.2322
916.35	172.9708
916.52	172.8103
916.70	172.5586
916.87	172.3208
917.05	172.0550
917.23	172.0391
917.40	172.0782
917.58	172.2665
917.75	172.4052
917.93	172.6705
918.10	172.8560
918.28	173.3831
918.45	173.8423
918.63	174.5488
918.80	175.3695
918.98	176.2776
919.16	177.0485
919.33	177.6054
919.51	178.1480
919.68	178.6022
919.86	178.8837
920.03	179.2791
920.21	179.2227
920.38	179.2287
920.56	179.0430
920.73	178.9118
920.91	178.6723
921.08	178.4211
921.26	178.5259
921.43	178.4028
921.61	178.5965
921.78	178.7175
921.96	178.6741
922.14	178.8018
922.31	178.8405
922.49	178.8143
922.66	178.7521
922.84	178.7860
923.01	178.8330
923.19	179.0008
923.36	179.3734
923.54	179.1365
923.71	179.0548
923.89	179.0843
924.06	179.0833
924.24	179.3514
924.41	179.7168
924.58	179.7491
924.76	180.1013
924.93	180.1095
925.11	180.1923
925.28	179.7406
925.46	179.8529
925.63	179.6122
925.81	179.7341
925.98	179.7516
926.16	179.6103
926.33	179.2289
926.51	179.5189
926.68	179.3343
926.86	179.4724
927.03	179.4769
927.21	179.6738
927.38	179.5597
927.55	179.9200
927.73	179.6006
927.90	179.6707
928.08	180.0261
928.25	180.1871
928.43	180.1170
928.60	180.1138
928.78	179.9516
928.95	179.5465
929.13	179.4527
929.30	179.7243
929.47	179.8361
929.65	180.0336
929.82	180.3810
930.00	180.1950
930.17	180.2658
930.35	180.3598
930.52	180.6185
930.69	180.7895
930.87	181.1424
931.04	181.5829
931.22	181.8843
931.39	181.5641
931.57	181.6322
931.74	181.4594
931.91	181.4343
932.09	181.2402
932.26	181.0109
932.44	180.8773
932.61	180.5373
932.78	180.4024
932.96	180.0022
933.13	180.0855
933.31	180.1284
933.48	180.2409
933.65	180.4352
933.83	180.6054
934.00	180.9743
934.18	181.0010
934.35	181.3499
934.52	181.6121
934.70	181.7487
934.87	181.7533
935.04	181.3951
935.22	181.4761
935.39	181.5824
935.57	181.0763
935.74	180.8679
935.91	180.7733
936.09	180.4903
936.26	180.0769
936.43	179.7758
936.61	179.8900
936.78	179.7083
936.96	179.3321
937.13	179.0260
937.30	178.7516
937.48	178.7573
937.65	178.2435
937.82	177.7268
938.00	177.3822
938.17	177.1648
938.34	176.7583
938.52	176.2331
938.69	176.0862
938.86	175.9104
939.04	176.0554
939.21	175.9448
939.38	175.8081
939.56	175.6055
939.73	175.7226
939.90	175.9534
940.08	175.6699
940.25	175.7654
940.42	175.9686
940.60	175.8452
940.77	176.0445
940.94	175.9193
941.12	175.8415
941.29	175.7581
941.46	175.9808
941.64	176.1851
941.81	175.9148
941.98	176.1995
942.16	176.3285
942.33	176.1187
942.50	176.1768
942.67	176.0930
942.85	176.1364
943.02	176.0309
943.19	176.1965
943.37	176.3029
943.54	175.8833
943.71	176.1161
943.89	176.1448
944.06	175.9762
944.23	175.9724
944.40	176.0862
944.58	175.9783
944.75	175.8267
944.92	175.8238
945.10	175.3616
945.27	175.4726
945.44	175.3389
945.61	175.2370
945.79	175.2018
945.96	175.2773
946.13	175.1062
946.30	174.7374
946.48	174.7373
946.65	174.6799
946.82	174.5690
946.99	174.8595
947.17	174.5625
947.34	174.6008
947.51	174.5595
947.68	174.2459
947.86	174.2777
948.03	174.4078
948.20	173.8394
948.37	173.4561
948.55	173.1981
948.72	173.0896
948.89	172.3885
949.06	171.9321
949.24	171.2630
949.41	170.7017
949.58	170.2829
949.75	169.9182
949.93	169.6574
